0,-3,-3,0,-2,0,0,-1
1,-2,-19,0,0,2,0,-1
-3,-2,35,16,-4,-2,-3,-2
-3,-14,-22,-20,-3,-2,-2,-3
-3,-12,-10,-3,-1,-2,-3,-3
-1,-6,17,3,-1,-3,-6,-3
0,1,-14,3,0,0,-2,0
0,20,0,3,2,0,0,0
1,-13,21,-1,0,-1,-2,-1
-2,-5,15,3,0,1,-3,-1
-3,5,-1,8,-3,0,0,-2
0,12,-14,-2,-4,0,0,1
-4,9,25,-10,2,-2,-2,0
-2,-2,-21,2,-5,-2,-1,-1
1,7,3,-1,4,4,1,0
1,9,25,16,-1,2,1,0
-1,-4,-58,-11,-5,-1,-3,-3
2,10,40,-2,0,0,-1,0
-2,-2,18,13,-3,-2,-1,1
0,2,-2,-5,4,0,-2,1
1,-15,-6,-31,-6,-3,3,0
0,-18,-16,13,3,-2,-2,-3
-3,-14,35,-2,-2,-2,-1,-3
2,0,20,-2,4,3,3,2
0,-3,-66,-7,5,3,1,-2
-4,-14,17,-11,-6,-6,-4,-2
-1,-11,-8,-13,1,1,1,-1
0,-20,-8,3,0,-1,0,-2
3,3,65,5,0,0,-1,1
-2,-13,-38,0,-2,0,0,1
-2,8,-33,-12,-1,-2,-3,1
-2,9,9,-9,-1,0,2,1
0,11,17,10,-3,1,-2,-2
3,14,14,20,4,2,3,0
1,3,-15,-14,-5,-4,-2,1
-7,7,-3,8,-4,-4,-2,-2
1,5,9,-5,6,0,0,0
-1,5,23,16,2,1,0,-2
1,-1,-43,-8,-3,0,-3,-2
-3,-3,16,8,-2,-4,0,-1
-3,-1,-18,-7,-1,0,-1,0
-1,2,-35,-3,0,-2,-1,1
0,-8,-1,-14,2,0,2,2
-2,7,56,55,0,0,-1,-2
-7,-8,-15,-38,-10,-6,-4,-3
0,-6,-15,2,1,0,0,0
0,-1,2,-4,-1,-1,-1,0
2,-2,-9,-15,1,3,0,1
8,16,68,36,8,6,3,4
-18,-39,-68,-60,-23,-13,-8,-8
0,1,32,17,9,2,-2,0
1,-4,-13,-14,5,0,-1,2
2,4,13,17,-5,-1,-1,1
4,10,62,17,11,5,4,4
-7,-4,-14,20,-6,-8,-3,-4
-3,-7,-11,-42,-10,-5,-1,-5
1,1,-36,5,8,1,3,0
5,5,-11,-15,0,1,0,2
-1,6,-22,24,-3,1,2,0
-7,-11,-65,-11,-6,-4,-3,-2
2,6,43,8,-11,-3,-1,-2
-5,-14,-55,21,12,2,-6,-2
3,13,47,-10,4,3,0,-1
4,-6,-64,22,13,4,3,0
-7,-13,30,-12,-19,-8,-5,-2
0,3,1,7,-10,-4,-1,-2
1,-7,40,14,-2,-1,-1,-1
0,-3,9,-26,6,2,-1,0
1,-7,12,41,10,4,0,1
-5,9,48,6,-2,0,-4,-4
-9,-32,16,-86,-32,-13,-6,-2
-4,1,-22,1,4,-1,-1,-1
3,5,31,21,3,1,0,-2
-1,-15,-71,-61,4,2,2,1
4,-7,30,2,-1,4,3,-3
1,17,58,40,-2,-3,-3,-3
0,-37,-52,-63,-6,-6,-4,-1
4,59,97,80,-20,-3,0,0
-4,-16,-85,-44,23,2,-1,-1
8,12,47,73,-5,3,3,3
-19,-12,-59,-91,-2,-9,-8,-9
6,10,58,25,0,0,1,4
-1,6,-39,26,2,-2,-1,-1
-4,-5,21,-28,-11,-1,-1,0
0,9,-14,14,-16,-1,1,-2
-6,-28,-2,-22,35,6,-2,-2
0,8,49,37,-26,-7,-2,0
1,6,-61,55,49,9,1,0
-2,3,-24,-45,-15,-5,-3,-3
0,-16,25,-14,-10,-3,0,-1
-6,11,-56,-39,-26,-5,-3,-4
1,-1,-3,-7,27,5,1,0
-3,8,8,-30,-37,-15,-4,-4
2,8,-21,10,81,20,4,1
1,13,27,37,13,1,0,0
-4,-13,12,-46,-37,-9,-3,-3
2,7,-3,0,23,6,0,0
1,7,-25,3,-38,-10,-3,-4
1,5,-12,1,6,0,-4,-2
-20,-35,-94,-64,-12,-12,-9,-8
-2,-23,20,-13,-4,-3,-3,-1
4,5,-14,-21,-22,-1,2,2
0,-12,-28,8,59,14,3,4
4,10,29,20,-27,-2,-1,1
-5,-9,41,4,-17,-5,-1,-2
-5,-6,-2,-52,-26,-9,-4,-4
-2,5,11,76,70,13,2,-1
3,-2,1,-12,-6,-5,-3,0
1,9,-7,-55,-32,-2,-2,0
1,2,17,108,19,2,0,1
0,-14,15,-72,-34,-5,0,-3
-3,14,32,-7,4,0,1,-3
-1,-8,-5,57,21,5,-1,-1
10,19,30,-41,-12,-1,2,3
-12,-4,22,-7,-25,-14,-8,-5
-1,-3,3,-14,3,2,2,1
-1,10,-1,17,4,2,2,1
2,1,15,5,5,3,-1,0
4,-2,19,16,-10,-2,1,1
0,-3,-6,-43,-17,-6,-4,-3
0,-2,9,88,20,2,-1,-2
-5,-16,-6,-20,-11,-6,-2,-4
1,4,3,1,-4,-1,-2,1
-6,-12,7,23,-30,-8,-2,-3
1,-4,-12,19,51,10,1,5
2,-13,-14,31,5,-3,-4,0
-3,4,7,-5,-12,-4,-3,-3
3,2,9,-13,-1,3,5,4
0,-2,3,-2,-4,2,3,-1
-10,-10,-10,-18,-10,-5,-10,-9
-1,4,10,-4,-4,0,3,3
10,11,-2,-7,4,6,15,25
3,-9,-13,10,-3,-10,-15,11
9,-4,3,-16,-5,-8,-12,-73
-4,-19,-1,-1,-10,-3,-6,7
-6,-5,3,5,7,0,-3,-5
1,6,-11,0,3,6,13,23
0,10,1,-5,-7,1,5,17
12,8,4,4,-3,-2,-2,-8
-7,-6,1,3,5,0,-1,-2
-6,-13,-22,-23,-7,-3,-2,-15
3,4,5,-8,-5,-4,-1,14
-11,6,-2,2,0,1,4,-6
-9,-9,3,-4,3,1,-3,3
3,-2,-7,-2,-4,-2,-4,-13
12,16,0,-1,-1,-1,-4,5
24,-15,-10,-3,-1,0,1,28
-32,2,1,-3,1,-3,-10,-56
-11,7,0,12,-2,-2,2,-2
-2,-16,-8,-12,1,1,3,3
-15,10,9,4,-7,-3,-5,-17
14,-2,-6,-3,1,-1,-2,10
5,4,-8,-8,-6,1,17,27
-26,-18,2,0,-15,-1,23,54
17,-25,-16,54,40,-5,-39,-51
-19,-4,7,-10,-6,-3,-9,-14
11,7,-2,3,-1,-2,-5,11
-23,9,1,-10,-6,-2,-4,-30
-5,14,0,-15,-12,4,37,74
3,-1,-4,1,0,-6,-13,37
-10,9,5,5,7,1,-18,-73
16,-13,-14,-11,-3,3,11,39
-31,2,1,-7,-8,-15,-27,-78
4,4,-1,-6,-4,-3,0,67
68,14,6,-23,-14,3,44,107
-23,-45,-6,33,10,-8,-46,-110
-11,-21,0,1,-5,-14,-20,83
14,12,-3,-4,2,23,25,45
-11,-6,-2,-5,1,-5,-14,104
47,-20,-3,-6,-11,-4,38,99
22,36,0,-23,-5,3,-7,-77
-39,-49,-9,-8,-6,-12,-35,-88
1,55,9,-10,-10,13,32,62
37,-34,-29,4,-8,-9,0,-42
-51,-29,-2,-22,-11,-13,-43,-21
-33,13,1,-5,-8,-17,-37,-92
16,-3,-1,-4,-4,-7,-19,-10
16,41,7,-23,-12,-3,14,55
-25,-2,2,4,-2,26,43,38
-11,-11,-1,7,5,3,1,20
-46,36,-2,-7,-8,-11,-3,-67
-82,-73,-2,-4,6,-17,-59,124
22,3,-5,3,0,25,46,-80
13,24,5,-7,1,-8,-33,-55
-100,50,11,24,7,19,16,64
-1,-40,-2,-4,-8,-8,-20,-108
-48,6,-9,-12,-7,-34,-68,80
-6,51,9,0,-10,-5,44,112
11,-128,-7,-18,-25,2,63,95
51,-54,16,53,55,2,-91,-93
-43,-128,-7,-16,0,-11,9,20
20,-122,-9,-7,-9,-13,10,92
4,-24,2,19,10,0,7,76
16,37,2,-41,-24,20,96,88
30,24,-8,0,-4,1,3,-12
1,121,12,28,21,28,30,98
63,-53,-12,-14,0,1,33,-1
14,24,9,-2,-2,-15,-80,49
-32,32,-3,-3,-1,-28,-57,-31
-49,4,0,-9,-5,33,47,43
39,106,3,6,4,0,31,17
36,127,11,8,4,16,23,106
6,127,-8,4,1,2,-6,-42
102,-19,10,-4,-2,14,24,127
31,-128,-9,0,-2,-20,-63,-128
-85,-32,-23,-20,-6,-19,-80,20
27,43,6,-14,-10,6,108,127
-27,69,-18,1,3,-14,-60,-7
30,127,9,13,7,-2,30,-12
-25,105,10,-2,-7,-5,23,61
-1,76,-1,4,-4,10,8,11
35,123,-5,0,-6,-25,16,-54
-53,80,4,12,9,12,-8,49
63,92,9,4,7,34,117,125
72,-96,-23,-1,7,-5,-41,-53
-20,-104,-8,-7,-4,-8,-4,101
-24,-109,-5,-12,-7,-45,-29,35
3,-67,2,3,9,43,99,68
53,63,24,10,-1,-8,-26,-42
-29,109,-5,-4,-3,11,82,37
-1,46,-1,5,10,20,-33,47
-95,-67,-28,-9,-9,16,80,-1
127,51,28,25,10,34,24,39
-103,-128,-20,-6,4,-69,-128,91
39,88,1,-7,-5,-18,28,93
-44,-21,4,-4,0,0,12,7
-56,-44,3,-7,-7,8,22,55
41,-28,1,0,-4,15,32,-126
-24,-49,-4,2,0,6,-44,-88
48,127,23,12,-1,3,25,25
37,-100,-37,-14,-5,-2,-14,-44
7,-49,12,3,-1,-9,-20,58
-21,68,2,4,6,13,-2,66
-89,-109,-30,-15,-13,-33,8,-128
-128,119,29,32,-6,9,1,127
11,-88,-33,-43,-9,-6,-20,26
16,80,-1,10,4,13,-36,93
82,111,28,22,10,24,-21,-9
-90,-91,-19,-2,11,-10,-90,17
-10,58,17,5,-8,2,-3,-21
-20,-107,1,4,-27,-15,45,113
-14,-14,-14,-23,42,57,79,84
80,-100,34,-22,-2,-14,-23,93
110,-18,-36,45,-22,-21,-65,-76
-76,-126,-27,-23,36,-14,-10,-128
-18,17,4,5,0,-6,8,48
18,127,5,1,1,47,127,-20
-36,-59,40,5,-10,-28,-36,68
76,30,-12,3,-9,27,93,75
-85,-70,-24,-18,-20,-48,-128,-96
-47,-105,-41,-22,-18,-6,127,-39
32,-23,-1,8,19,42,79,-91
-64,109,18,7,-1,7,-1,80
-103,-78,-16,-18,-8,-43,-112,-81
-7,56,6,5,-16,-26,4,95
-13,20,8,-10,8,39,99,50
-1,-82,-24,16,40,-28,-128,-39
72,56,-13,7,-9,11,58,121
-27,69,5,9,8,43,68,108
66,3,-25,-13,-22,-23,-57,-108
-26,84,-34,-26,16,-56,-74,-37
-23,84,0,19,-11,14,77,54
96,39,-20,-15,-7,-55,-122,-12
-71,-12,39,-6,-2,13,8,-55
-65,24,67,4,-14,16,-10,-5
39,48,32,-3,-4,-14,-49,-39
-128,-36,26,4,6,-6,28,-1
-76,23,-10,-7,6,11,72,89
-26,-17,-9,9,-10,-12,17,-51
-1,-38,-12,-12,-6,-28,-15,-9
-1,-47,-13,-4,-6,10,9,36
-16,-11,-18,3,10,-10,-40,-41
-35,-6,2,-14,-27,20,127,107
98,-85,10,5,-26,-55,-76,17
5,71,-30,-17,31,-14,-86,63
-36,89,9,2,-1,-3,17,127
57,-93,6,4,-8,38,93,-38
77,127,6,3,7,-2,-60,4
-81,-57,16,14,-1,12,55,64
1,-28,-14,-8,13,18,10,-35
-52,-63,-20,-11,-4,30,-59,-26
-118,-6,-3,-7,-12,-8,53,-46
15,37,-4,-3,-1,-7,-34,-35
-60,95,25,9,6,12,7,28
23,39,2,2,-12,-18,-48,7
49,10,6,1,8,10,30,5
13,-77,-25,-2,-21,-38,-18,107
-48,61,-4,-23,-3,-6,48,17
15,39,-15,-2,0,-18,-33,-27
-44,43,1,5,6,10,20,54
85,119,40,4,-8,37,18,-69
82,-93,-24,0,-3,-25,-61,-105
-55,-25,-5,-7,-1,-2,24,109
-53,38,14,-4,8,54,121,127
-44,-30,16,15,5,-3,-100,-121
-11,-52,-31,-13,-7,-20,-44,88
-32,-41,1,-7,-2,-17,-121,-128
-31,-9,-5,-2,-3,-8,26,28
-17,83,34,7,-4,51,88,67
-113,-62,-28,20,-3,-65,-102,-45
-8,68,4,-16,-2,-25,33,112
21,46,1,-3,-10,2,10,73
-17,-92,-23,-9,-4,-15,2,35
98,127,16,-1,3,54,48,-50
17,11,-6,5,-9,-8,-48,-27
2,-62,-9,-2,4,-11,-31,-71
-61,1,-12,-12,-1,3,15,39
-62,60,18,10,-1,22,98,123
127,59,13,6,-2,21,64,-128
-64,99,8,-9,17,20,-74,54
42,-126,-56,-20,-17,-48,-81,8
38,92,14,-2,-15,-1,41,11
46,-44,-12,-12,5,-14,-4,4
-71,-29,-6,11,-5,-12,-91,77
119,46,18,-2,-15,-31,-66,-87
1,20,-37,-12,2,-5,-102,96
-34,127,20,3,-3,22,119,127
96,-128,-18,-5,-8,-16,-112,-93
-92,17,5,5,3,16,41,100
116,55,36,18,12,1,-35,84
-36,8,-3,7,-2,4,15,46
-4,-54,-1,1,3,-7,10,60
-55,30,4,4,4,16,46,-88
-30,28,21,4,4,5,26,14
11,-88,-21,-2,9,28,16,101
-39,-68,-24,-13,-6,-33,-54,-108
73,70,11,0,7,-19,-56,69
-56,19,1,-6,0,11,44,31
-5,-47,0,-2,0,13,-53,-128
96,-40,0,10,-19,34,127,27
-97,-78,-41,-46,-1,-57,-106,-99
41,-123,-7,-5,2,-9,-20,-36
40,94,8,-4,-18,12,58,126
-35,-52,9,15,2,20,-64,-88
24,48,15,36,42,38,97,75
-2,-26,-9,-9,-17,-16,17,27
-63,42,9,2,-2,3,38,-20
-54,-9,-19,-13,-6,-14,-88,-70
-12,79,8,0,-8,6,75,17
-2,59,10,2,8,31,63,48
-64,-109,2,10,8,-14,-77,-87
-120,38,1,-8,5,-13,36,72
27,46,-4,0,-6,1,-31,66
35,-25,-2,0,-1,-8,15,-56
-17,80,-13,-10,-12,-36,-46,24
24,86,17,15,10,29,41,-43
44,-80,-25,-14,-16,-3,-13,-14
-34,-12,4,-1,-6,-10,-43,45
27,55,20,13,17,26,24,70
20,-102,-12,9,9,-31,-111,-74
-128,127,30,5,-1,24,94,66
50,-111,-35,-11,-4,30,-38,-128
19,-128,-27,-20,-22,-69,-64,47
65,127,11,-8,3,3,78,127
15,-87,6,3,-6,34,5,-20
-53,32,10,11,13,-31,-120,-48
-19,88,36,27,28,89,88,94
-69,-122,-40,-12,-26,-33,8,-24
12,66,12,2,39,0,-102,101
4,40,-5,2,-7,-6,48,33
-40,-6,-6,-1,-6,10,15,34
49,47,-5,4,-7,-8,-68,105
-111,-123,-29,-14,-17,-22,-30,-96
-99,88,36,16,15,16,14,78
-37,-67,-74,-38,-23,-37,-111,-110
116,127,19,-16,-6,10,31,109
-51,34,-8,1,-15,-12,26,127
10,-78,12,8,15,60,14,98
75,-74,8,14,-6,-55,-17,-10
-128,-86,-10,-10,0,23,72,75
-29,110,40,45,3,28,18,22
-90,-33,-41,-52,-11,-48,-18,127
-43,-59,13,4,7,33,27,27
-32,35,3,11,8,-5,-24,-103
-20,-41,6,-13,-7,-34,9,66
92,-86,-6,-17,-28,-6,3,36
52,97,2,32,-21,0,27,-80
-21,44,13,21,52,-7,4,5
37,-128,-38,-25,-24,-3,69,-16
62,127,12,10,1,-13,-14,42
-65,83,1,-19,-8,3,-59,-21
51,62,15,-1,-12,40,100,65
-16,-56,-25,1,-6,-33,-58,-111
-42,43,12,4,-6,-6,21,7
-16,-5,-3,2,22,-31,-71,-63
101,-2,38,7,9,10,39,97
50,53,-36,-3,9,12,-88,76
-48,99,10,-18,-11,-13,30,92
35,-69,-31,-16,-19,-20,-18,-59
-62,62,0,-8,-9,-29,-56,-17
4,23,10,-6,-6,3,-7,-12
-19,27,-5,11,6,2,18,-7
65,-25,8,9,17,40,112,127
-65,-66,-11,-15,-13,-17,-17,-100
30,58,11,2,-3,5,86,101
-114,118,28,14,-1,-6,79,39
-111,-45,-29,-18,3,-26,-28,-24
-38,-1,-5,6,-2,4,39,53
58,-65,14,15,16,50,90,23
125,-58,15,15,-14,-65,-89,26
0,49,9,10,-2,-11,-67,43
-57,91,-8,-10,24,28,25,66
-38,47,-5,-7,-7,-38,-53,-94
-50,-77,-31,-9,-8,2,48,-72
-78,67,31,14,9,71,43,57
20,-40,-5,-3,6,-39,-82,-88
70,104,37,3,2,-17,64,127
39,47,-4,2,-5,58,82,57
-56,-77,6,9,32,-7,-106,-17
-98,25,2,1,-2,12,36,58
26,-91,-20,-21,-13,0,-26,21
-69,48,11,9,14,33,23,12
-5,85,-4,-4,-7,-17,64,-18
87,-59,-10,-14,-23,8,-14,40
49,-9,15,23,-17,-69,-128,-65
89,-58,-38,-35,13,35,-47,111
-29,60,12,6,7,7,-13,-40
16,-128,-27,-23,-40,-27,-77,-128
-60,53,10,18,45,45,121,125
66,-52,-8,8,5,1,-53,-128
-79,73,-3,0,-5,-5,-40,127
83,46,-16,-22,-28,-66,26,-53
-128,95,10,13,8,9,44,2
2,-48,-27,-17,-3,-5,107,74
53,-96,-17,-15,-14,-17,-21,-38
-9,59,23,5,2,32,79,127
18,-113,-22,-16,-7,21,13,-22
-97,28,17,15,-1,-39,-128,101
31,45,6,-7,-15,-27,-10,3
81,-24,-9,-3,-1,-3,16,85
20,15,-14,-22,-18,1,14,-81
-56,-43,-1,8,-15,-23,28,-61
76,44,27,5,-1,34,127,121
18,95,28,28,32,19,7,34
44,23,-46,-14,-4,-16,-62,7
4,68,-6,-11,-1,15,9,-79
-40,102,21,8,8,-1,27,-6
28,-91,-54,-13,-12,5,-34,-45
-15,78,18,3,-6,-12,11,-48
-38,78,20,13,8,-14,40,59
-58,-11,-33,-24,-9,-3,-88,-106
-95,17,10,10,-11,-4,-13,42
11,32,-2,-4,-8,-25,-94,-63
103,-128,-42,-13,-16,-26,-29,-76
-24,-68,2,-32,-27,-25,56,126
61,113,-3,5,50,1,-65,-70
90,10,-4,-8,-16,-6,-70,-57
-56,-59,18,5,-4,-2,51,105
-21,50,-3,11,-12,9,-29,-91
-108,-94,-2,1,1,31,75,-79
47,68,9,5,11,-21,-106,-56
13,114,1,14,3,-3,23,38
14,-65,-12,-1,7,6,9,127
-104,47,29,18,-1,26,28,113
-44,40,18,30,5,-15,-27,101
52,-83,-13,-36,-2,17,79,78
31,8,-10,0,2,-7,29,35
71,86,44,30,-16,-20,-30,78
-73,-128,-15,3,12,13,28,93
9,117,-7,-8,3,-25,-71,-10
123,59,18,9,17,52,101,59
-80,-88,-53,-26,-8,-38,-64,-18
13,96,19,6,10,14,70,125
36,-13,9,12,2,46,44,97
-63,113,43,20,24,9,-101,40
-61,-90,-47,-34,-40,-22,-7,-35
-111,18,-24,-23,-15,-23,-9,-128
-44,127,12,-8,15,41,31,-78
-13,-53,-20,-7,-17,-60,-72,-128
42,25,8,-3,-21,-18,-52,18
-36,-81,-22,-35,-6,-2,91,77
6,51,11,24,6,-3,-45,31
31,-48,-17,1,-15,-27,-33,27
9,66,-9,0,10,-2,-128,-82
1,86,30,0,-5,-3,-25,77
-34,-114,-14,-18,-22,-13,-67,-43
-7,3,-4,8,12,-12,-70,14
-13,68,14,2,6,9,68,71
96,-9,11,3,-1,25,-30,-108
55,18,3,4,-6,-4,49,56
-82,-116,-45,-18,-10,-17,-42,-123
-49,74,4,-8,-1,6,49,117
-47,108,11,3,4,40,76,114
32,-78,7,8,-2,-12,-35,-53
94,26,-11,-9,5,-14,-30,108
38,106,23,10,11,18,-4,64
23,-128,-16,-9,-11,-5,49,59
-73,50,10,8,4,0,58,54
39,123,31,20,0,6,0,100
126,-118,-44,-31,-21,-34,-30,-59
-7,127,52,39,11,3,-35,113
-8,-15,-39,-26,-18,-2,57,44
-71,-21,-9,-14,18,-2,-14,-9
-92,119,49,15,8,51,125,99
4,-128,-53,39,-2,-15,-103,-12
-80,105,13,11,34,-21,-81,120
-45,102,13,-7,-2,40,85,95
6,-90,-36,1,-4,-25,9,44
-17,50,35,-16,-9,16,14,55
-69,-79,-3,67,-14,-19,-94,-128
-68,-13,-36,-72,4,17,-7,47
-57,66,22,7,2,8,-33,-126
-74,29,-4,-8,-7,-20,-2,-33
32,-78,0,1,1,-30,-113,27
15,56,26,28,-15,13,37,64
56,-128,-16,2,-9,-33,-101,102
-115,62,-4,-24,0,11,90,67
-12,75,32,38,-21,-51,2,-7
-21,-115,-40,15,27,-19,-49,30
-28,127,13,-11,6,9,69,39
71,-59,-19,2,2,1,45,-21
3,30,12,-31,1,40,76,70
-66,33,17,11,-11,2,51,-65
34,-128,-44,8,-1,-41,-125,-89
62,127,4,-18,7,-1,-86,37
-30,9,-14,-24,0,16,43,62
16,83,28,3,-9,-11,39,9
-106,-45,-7,-4,4,22,33,47
35,-20,26,16,-3,20,1,-69
102,-97,-58,-41,-22,-75,-128,57
-28,108,29,12,7,28,56,127
36,23,14,-6,1,1,-3,27
-98,102,22,10,6,14,30,101
-7,-26,-41,-7,-15,-22,-56,-113
-4,-87,-13,9,0,-32,1,89
-10,116,12,-32,-3,-7,32,87
-41,-3,-24,-11,-11,-15,41,115
39,8,43,12,21,72,0,-22
51,-79,-23,-17,-23,-17,-13,-98
43,19,-8,23,14,17,31,4
-72,-77,2,7,7,5,-67,126
77,-18,0,-16,7,7,-7,106
-85,57,8,9,-13,-8,-108,-128
67,51,-6,-5,-11,16,48,76
45,-82,-11,-16,-8,-19,-95,-64
-63,112,-9,-19,32,23,6,-35
127,97,1,-1,-5,-6,-67,127
10,-66,13,16,19,2,-2,77
-37,-15,4,2,-16,-6,-45,-37
-69,83,17,10,1,47,109,75
106,41,-6,-18,3,-59,-57,68
-66,96,24,16,4,2,13,-14
28,40,-3,5,-2,15,83,-42
-114,34,-42,-15,-7,-13,20,64
-59,3,13,3,-4,26,47,12
32,-3,-16,-11,-7,-32,-6,-107
-88,112,-4,-3,5,-24,-25,-21
72,-46,13,1,-4,0,-18,-77
-116,-22,-11,-1,-7,-3,77,-85
-100,-49,-12,-16,-6,2,-4,35
127,-4,-10,1,7,14,34,120
11,-37,21,23,15,-4,-9,-23
-21,-5,-9,-27,-14,-7,7,27
66,57,-21,-10,-2,4,-5,-47
-88,-17,1,1,13,26,103,32
-16,39,6,5,-7,-18,-33,-75
-34,-11,14,21,8,8,-20,15
9,12,-10,2,-6,11,77,107
24,-24,4,-12,-19,-8,-44,-118
-84,48,7,15,4,-15,-52,105
-18,-104,-40,-16,3,9,80,84
-88,76,18,6,-1,-44,-61,-35
66,7,-11,5,-2,13,26,23
-72,30,27,1,-6,19,109,79
59,0,5,8,5,23,74,81
94,-44,15,19,16,32,-41,108
-35,-16,-19,-9,-2,-30,23,70
58,62,7,-10,-3,10,41,73
-26,-25,-9,-7,-5,6,-22,101
-70,-73,-13,-23,-5,-3,24,-33
-51,59,13,-1,1,-3,-24,2
-32,-32,-22,-7,-9,-7,5,-32
-50,-4,16,17,0,12,53,48
-56,-36,-10,-12,-29,-45,-99,-60
-1,-16,-11,-12,34,-29,-128,-110
-78,43,6,0,-6,11,16,120
63,97,8,-4,-6,-5,-35,-128
99,7,21,34,-8,18,24,79
-58,-90,-12,-19,1,12,12,-83
127,-94,-17,0,-11,-10,54,41
112,30,12,-6,8,12,-89,30
-63,-28,-11,-10,-2,-15,-40,75
51,34,-20,-15,-22,-14,-4,-22
-82,1,28,14,18,49,88,127
31,-23,3,28,-1,-14,-52,-71
-16,8,-33,-33,10,3,-44,-14
62,39,7,6,5,-6,-13,127
127,94,26,6,-3,-1,3,51
-57,-48,-16,-4,-5,8,-9,-49
53,3,-8,-14,-10,16,83,-105
61,86,21,21,0,-24,-55,118
-105,10,-19,-14,-9,-31,-46,4
110,52,-4,-3,7,6,20,-13
3,62,26,6,0,12,60,111
-67,-6,-10,-4,-11,-2,-28,-19
-23,49,-9,-1,1,1,-11,-80
-53,-63,-11,19,-7,-22,37,-45
-75,71,7,6,4,13,-21,-71
25,44,-6,-40,8,14,60,52
-73,-73,-10,6,3,-4,5,78
51,54,18,-40,-11,15,111,126
-23,-54,13,49,-4,-40,-83,-65
-25,4,-3,-2,-8,-7,20,-75
127,87,-3,-12,-6,-7,-54,-128
-121,-46,-4,-12,-6,6,35,-34
37,2,-17,-15,-13,-41,-29,-37
74,-12,5,0,-8,2,47,82
-59,-45,10,7,9,4,-68,12
24,8,-6,-1,-3,-6,7,88
-19,-9,-19,-13,-3,18,42,-1
-47,-109,9,23,-5,-21,44,109
69,-110,-14,-2,-10,-17,-44,-7
-37,73,-3,-15,28,-7,-17,89
62,-9,6,14,-11,19,127,115
-84,-90,-44,-32,-2,0,-35,58
-38,66,-5,11,8,-5,-68,-128
-15,74,-7,-1,-21,-20,-62,32
-89,-54,7,-1,11,22,47,127
43,81,17,26,-5,-12,-75,-94
33,-35,-18,-21,-8,-11,13,48
32,-77,-14,-5,-2,10,57,-53
-73,70,22,-3,6,-9,-81,-52
22,85,-9,12,2,31,84,57
13,-126,-39,-29,4,-7,-52,36
0,107,30,3,2,-5,-35,-40
4,-48,-31,-23,-22,-3,-13,-57
-23,95,44,40,3,31,-1,-47
-101,24,-15,-27,31,-19,0,58
-9,-35,-1,13,-6,-10,-9,-101
73,-30,32,30,-15,10,-36,111
80,-25,-54,2,82,4,-82,-124
-81,67,17,9,-19,14,127,119
34,-64,-33,-11,0,-20,-62,-83
52,127,-1,-8,-5,-18,-26,63
-54,7,29,-13,-24,1,66,112
34,-21,1,4,-11,-3,44,-15
-103,27,-7,2,19,20,-82,8
-15,83,6,-4,9,13,20,-27
24,-11,-20,-15,-19,-12,1,-85
15,82,3,-3,-5,18,59,-68
-25,-9,24,16,-4,-26,-45,-23
37,91,-5,-5,17,7,11,-105
0,-5,-11,-7,-18,-12,81,121
0,7,5,1,-4,-5,-57,-93
-20,41,11,7,4,38,67,127
-25,-128,-27,-7,-5,-26,33,72
-43,28,4,-12,-5,-7,-68,-34
-16,40,17,12,10,30,0,117
-4,-55,18,9,-4,-2,12,34
81,99,-7,-29,4,17,12,13
-27,46,12,3,-8,-8,-20,-49
-31,-81,-7,-3,-7,-12,-47,-26
0,41,-9,6,-2,-3,29,68
-15,4,11,3,6,29,41,88
76,-41,17,14,6,9,-14,-126
-3,-27,-30,-13,-13,-35,-41,70
113,51,-1,-6,0,20,80,-36
-43,3,34,7,-1,9,33,4
-29,-18,-45,-11,-9,-3,50,45
-31,12,9,0,-2,8,14,58
-26,-23,50,0,-13,-24,-4,-23
-92,-38,-6,8,10,-10,-96,50
33,23,47,1,-3,0,9,85
18,14,-6,0,-1,-7,18,-37
-3,-10,-63,-30,-8,-2,9,-2
17,39,-6,9,7,14,-1,8
42,1,-6,1,-4,-14,-37,-98
76,-8,28,16,-18,-6,21,99
-87,-6,-6,-20,25,10,-71,17
25,-59,-46,-9,-9,-22,-35,58
-122,-49,-11,-11,-10,1,-7,79
-8,127,5,9,7,47,26,73
16,35,21,36,5,-19,-105,-18
-94,41,-22,-18,-13,-30,-42,18
79,-39,-13,-5,-5,4,33,116
-57,-10,-22,-14,-8,-27,-8,-128
56,5,21,5,-4,12,64,127
19,2,11,-6,0,5,62,41
-61,-68,-12,5,-3,-1,45,52
55,-24,7,-2,-4,-9,3,66
-15,42,-2,-2,-4,-1,36,71
-29,-9,19,24,4,4,37,-56
-11,-57,-48,-15,-18,-13,2,66
-62,44,22,-11,10,-5,-100,-78
-1,14,-7,-1,-10,-8,-15,9
65,50,-10,-4,-6,6,1,-16
45,38,18,5,-1,-1,13,37
-34,-16,4,0,-2,9,32,17
-51,79,28,15,6,57,103,126
-96,-96,-42,-18,-15,-61,-113,-108
-45,127,11,-3,0,-6,-18,74
41,94,19,3,3,9,31,-2
-60,37,-84,-16,0,6,22,-2
95,11,17,2,-9,15,127,110
-12,58,6,-3,1,-2,-33,58
66,98,23,15,7,-5,13,43
-45,-60,-5,-6,-8,-36,-77,75
43,82,-4,2,6,13,-6,41
-37,82,30,8,10,22,42,49
98,-63,-54,-22,-42,-20,13,30
-25,38,-1,-46,-2,-16,-13,-95
-23,-5,6,21,38,25,42,96
89,-37,7,6,-1,26,-22,95
-42,78,14,22,13,-9,-39,118
124,-117,-9,8,-40,-21,12,-43
-128,93,35,-7,-5,-24,-116,-91
-49,-39,-67,-39,-11,19,65,-126
-128,-109,-1,42,-19,-17,85,27
123,50,-20,-45,43,19,28,80
35,-33,10,8,-2,-30,-50,88
-34,73,44,30,10,-12,-82,41
127,51,-6,-11,-2,2,-45,-44
-122,48,21,10,-19,-15,54,-45
118,-111,-8,-5,6,9,76,72
-28,92,14,6,7,37,15,-128
63,-106,-46,-14,-30,-81,-97,50
-117,12,35,34,-25,3,-27,15
45,113,-37,-51,61,39,55,-31
-9,-95,-4,32,13,-6,56,-90
-127,117,45,15,6,23,-5,-31
-14,-104,-37,15,-44,-6,-19,-16
-122,-78,-18,-28,-33,-8,33,-105
15,-51,-12,-22,36,-1,-18,19
30,67,-7,15,-6,40,76,83
-21,-11,-3,-13,4,-26,-11,110
11,-73,-21,-23,-8,-1,-112,-75
-120,-128,-18,-14,-16,-30,-100,-56
87,73,37,-3,-32,13,73,58
-23,-58,-34,-33,4,-23,-39,-66
-92,107,18,34,49,30,57,127
67,121,16,22,17,7,41,11
-112,-128,-36,-30,-2,-42,-112,-103
-52,64,24,9,-16,0,66,77
80,63,-4,-12,-15,33,88,-16
51,40,25,-27,-18,-41,-15,118
43,-52,-2,43,3,51,27,-59
62,73,22,56,37,-33,-72,109
-7,-128,-43,-50,13,37,58,81
-26,44,10,-27,-43,-17,-43,-41
50,44,39,-25,-12,8,63,-39
-32,-61,-33,77,13,11,6,-77
-66,-8,9,-3,51,-53,-102,56
34,12,38,38,-8,2,30,105
-12,21,-8,-32,14,42,-11,72
67,-3,59,-17,-14,29,92,-59
49,54,12,17,-59,-25,-6,-58
-15,9,-61,-2,19,11,-4,37
-80,-1,-7,-28,8,-11,30,-47
-60,23,7,11,23,63,116,68
38,71,29,43,-1,0,-128,67
-12,-64,28,-25,-9,32,63,106
-100,-75,-24,-6,0,-57,-74,27
91,64,-6,-15,25,34,45,122
22,25,11,-28,-30,31,20,-119
34,10,4,53,-42,-60,83,127
-79,78,-3,20,67,21,-18,31
43,0,-53,-10,4,-15,-34,58
36,59,2,18,-11,8,-29,12
20,-59,-24,-11,-28,-51,-80,76
94,-93,-28,-6,-20,-12,-9,66
78,58,23,-39,-18,-6,6,32
-80,39,14,13,4,81,127,64
-44,-109,-48,9,-5,-3,29,-128
-22,-48,-20,-9,20,-13,-60,80
2,70,38,-17,20,34,-83,-81
-125,-21,35,50,-79,-36,44,102
-83,-84,-28,-38,-5,-31,-92,-128
-89,50,-2,110,53,-22,-28,127
-125,74,28,32,5,73,112,55
18,-37,-11,13,-1,-61,-47,-71
-82,18,-11,-33,-35,-38,18,38
-1,108,16,-45,-18,6,109,32
47,-11,11,-4,-1,-26,-69,127
-51,69,-57,5,16,1,80,-62
37,127,3,-25,14,12,28,127
-35,103,-2,-27,-7,17,-21,31
50,-89,-77,-48,-70,-37,20,53
67,-13,1,16,-21,-69,-71,30
-48,-51,15,29,65,47,42,75
-55,-33,10,72,25,50,61,56
-23,-36,-32,-71,18,-56,-43,87
-6,91,19,-19,-4,24,-28,-66
-22,-108,-49,-6,-11,-25,-51,48
127,86,48,-10,-18,34,106,55
23,24,31,22,-48,-35,-119,-67
-54,-113,-101,-46,64,-31,-81,48
-51,56,26,-21,23,4,-20,127
116,35,47,-16,-16,32,73,21
-60,-62,19,77,-61,38,63,-128
-66,-70,-43,-91,76,-12,5,21
-9,112,21,29,-22,34,99,45
32,19,30,-75,-26,0,-25,57
-118,-110,-73,19,-16,-42,-105,-90
34,115,41,83,15,29,45,127
31,-19,-23,-5,-4,27,67,38
8,75,8,-25,-10,-78,-97,-28
123,59,39,-37,23,33,102,74
-52,-84,2,-18,-41,-4,47,-20
58,-2,-27,-3,15,-29,-59,-92
-32,-68,-17,-11,-29,12,8,3
-46,-51,-7,1,34,34,79,74
27,67,67,38,-2,29,70,127
107,-1,-37,9,-11,0,-62,-116
-43,-11,-25,-4,3,-18,43,43
-60,40,0,-8,13,-29,-15,76
-19,-17,19,-3,-21,12,38,19
-22,60,37,-1,-7,-6,-7,-41
-4,-72,-34,6,6,-18,-58,-93
-33,31,21,6,23,-1,-40,-19
24,-89,-41,-14,-35,-11,-3,-22
-2,-62,38,-5,-7,4,-2,-45
-21,-87,-56,-2,5,-20,-36,-60
18,-24,20,-4,-3,-9,9,-17
5,-33,22,3,-16,-5,-29,-37
-5,-53,5,-5,-2,-8,-7,-19
-7,-39,-2,1,7,20,8,1
6,-31,7,14,-10,-15,-13,-28
18,-28,2,-30,-4,-9,-14,1
-12,30,-8,-11,12,12,8,34
-16,2,8,10,-11,-4,2,-36
6,16,-22,-8,1,6,45,42
10,15,12,9,-14,-25,-33,-27
10,48,10,4,-1,2,1,44
-23,22,11,0,12,47,36,10
19,-30,-37,-11,-6,-12,-28,-70
-2,20,26,6,-12,-6,-5,42
4,29,5,-5,-2,5,29,-11
35,-7,-10,0,-6,-24,-3,15
53,80,6,-4,9,30,45,-1
-70,-66,-2,6,-6,-37,-45,-8
-70,-10,-20,-6,-2,4,-44,0
37,23,-7,-8,-9,-9,13,79
-4,10,-1,-9,3,1,-10,59
44,43,1,2,3,12,46,-1
25,-16,7,4,-7,-1,-22,-13
-55,-13,-4,3,-1,-14,-3,-42
7,5,1,-5,4,-11,-8,-34
-6,25,3,3,-2,2,-11,-21
51,26,6,10,6,30,59,44
17,12,-9,-7,-7,-21,22,-80
-55,-60,-12,10,-14,-25,-110,97
-17,28,3,-21,-30,-12,23,-25
60,-75,-4,22,59,4,-17,-20
-22,31,-10,0,-6,-3,1,95
33,13,-9,11,-15,-31,-88,-128
4,101,12,-5,-1,6,-10,127
-76,-73,-9,-40,-38,3,77,85
92,55,-1,7,8,-47,-128,-76
-59,-32,-2,-44,-9,15,58,41
35,-79,-19,21,-3,17,18,89
36,85,15,34,37,-49,-100,-74
28,62,64,26,13,53,122,127
40,-60,-42,-24,-6,-27,-5,70
-57,84,-6,-1,-21,-30,-59,-12
85,40,66,8,-24,26,104,94
-8,-128,-53,-34,2,-40,-83,-53
-32,118,58,55,4,6,22,127
-67,44,-5,-32,39,19,113,-41
-128,-77,-63,-11,-37,-62,7,-54
43,127,44,25,9,43,72,101
81,-109,62,19,-32,26,-41,24
50,4,-35,14,106,9,-18,57
-65,-21,-15,-23,1,79,97,-44
-41,-26,57,-9,-59,-51,-111,-80
-63,55,-113,-100,82,-41,-61,18
14,63,80,-5,-68,-8,1,12
85,80,-22,28,-20,6,-33,-29
-104,-100,-85,-7,-1,-13,3,-99
-34,69,-7,68,50,8,32,68
-26,44,37,-16,-4,42,85,56
-32,-27,-7,-20,-18,46,-74,-45
15,-22,0,-3,-31,-37,59,127
16,-32,23,-31,-1,20,72,11
116,-52,-6,42,27,74,36,-18
-87,7,26,35,-27,-47,-55,109
-19,24,-18,-59,0,-5,89,-38
104,30,67,74,-52,28,43,55
-55,62,-29,58,54,26,-71,102
-80,-38,-24,57,95,0,-95,40
-15,61,-36,-15,-37,-64,-128,-25
-123,127,93,50,-79,-3,118,113
-50,-127,-49,67,-69,-59,-128,-128
82,60,-81,-73,101,8,108,127
-50,16,1,57,-10,33,9,96
-42,127,1,-88,-33,45,73,-11
43,-114,-22,-12,-60,-52,-73,108
-51,93,-14,-3,-94,-73,46,42
-7,93,19,-51,114,-39,71,2
-30,-84,-85,14,-16,63,32,-21
-54,31,-25,-5,103,87,102,18
49,-24,-23,39,-17,5,87,-80
-29,95,26,-66,-33,41,10,44
2,26,-24,3,-14,-37,-18,-17
18,-64,-17,-37,-36,-55,-44,122
59,-16,-19,-5,-61,-43,-32,-87
20,19,28,-11,-17,54,-2,-69
11,-19,-17,-52,15,42,59,-110
81,-69,42,58,-109,-21,8,-76
47,21,13,9,69,13,-128,125
-43,-68,-41,-2,-36,-96,-50,42
51,-6,-26,1,34,59,-68,-27
-47,127,5,-39,-20,-73,127,-120
27,80,54,24,-36,62,36,56
-19,-108,-39,5,24,-14,-19,15
38,88,11,19,24,-76,-60,-95
-28,97,-4,-16,-12,-23,-79,71
-32,102,21,-41,-18,-112,-81,-76
0,-35,-5,13,19,117,89,0
48,-48,37,1,-24,12,-45,-57
47,-122,-11,-23,32,-24,-35,-105
-53,35,-17,-33,-17,-36,17,103
-44,-4,9,32,4,54,32,-19
19,-63,5,-9,-8,-50,-1,34
19,-55,-6,-10,-23,-53,5,11
-21,-55,56,-5,32,127,82,-68
72,18,34,23,-20,-17,28,-12
25,-128,-11,-21,7,-22,-45,-26
-4,41,-4,18,53,18,-11,0
19,-36,11,-9,-27,-17,48,3
-1,36,-15,11,1,29,5,-3
4,5,24,-15,-14,-24,2,2
-13,-53,-17,-36,-2,4,-23,6
9,-85,-33,-8,0,15,-25,-9
36,-43,12,4,-6,-26,0,8
-30,17,19,10,18,25,-60,20
-21,7,-42,-18,-15,-8,26,9
17,3,26,-10,-5,6,14,-15
-3,-11,-6,-4,6,10,-19,21
-12,-14,-26,8,6,-47,-69,-5
-12,21,13,-6,0,40,29,0
6,23,7,-5,-9,-10,-44,47
19,-23,-19,8,-1,-20,-32,0
-50,-11,-19,-1,3,-14,17,5
7,7,12,-9,-8,13,-9,2
-21,10,-3,5,-16,-13,8,-5
9,-20,-11,4,36,7,7,9
2,-13,-7,-2,0,-20,-43,9
-18,20,23,-8,-2,31,25,31
-13,-4,-14,-4,-11,-10,14,-12
-3,2,12,5,-12,-5,-22,-6
-1,8,-22,-8,2,-7,13,-10
2,26,1,-4,-4,-14,-22,5
14,3,18,3,5,21,-18,-13
11,-4,-7,0,-5,-4,1,-1
-4,11,-8,-5,4,-6,24,19
7,1,9,-5,-6,5,-18,-7
-7,-3,2,-4,0,4,52,10
5,8,6,-3,-7,-5,1,-14
-3,1,-36,-2,-3,-16,18,3
4,8,3,-2,0,-1,-6,-11
-1,6,-1,-4,4,-7,-32,-13
11,8,5,3,-3,12,19,54
9,-5,5,-15,-9,-22,-33,-29
-9,-14,-1,2,4,2,6,-3
0,2,-2,-4,-1,-8,-7,11
19,-15,0,0,-11,-14,-17,-17
-24,3,8,6,6,13,71,110
36,-4,-7,-8,1,9,-33,-57
47,30,5,-1,-3,-6,14,54
9,-25,-8,4,1,6,-69,-87
-52,0,-4,-2,-4,-19,26,48
-8,10,3,-2,0,-4,2,56
-15,16,0,-12,-19,6,-5,-9
61,68,2,22,3,-12,-30,61
-17,-12,0,24,51,51,53,-53
85,-37,-19,-11,-13,-17,-96,70
-46,-48,16,8,5,-28,-24,14
-44,13,5,-15,-27,-14,43,99
-7,-76,-11,-13,-9,31,39,-67
-54,111,36,9,9,6,-69,-5
-65,-107,-3,3,24,68,94,9
50,-93,-13,32,-6,-46,-94,-111
-33,106,-8,-56,-1,6,-32,79
-48,-128,-24,-15,9,2,1,-89
-78,117,-17,-41,-34,-53,-80,96
63,119,72,57,26,16,73,108
-92,-71,-47,12,-58,-59,-128,-85
-20,96,-24,-81,21,9,97,127
68,-102,-4,1,-5,27,70,40
-20,-75,-52,-30,-20,-26,-12,69
127,127,46,-78,-59,15,127,101
-19,-38,-48,58,-16,-53,-111,-128
61,61,48,16,-23,0,60,81
51,25,-14,-36,-19,66,-24,-82
-91,2,10,5,18,36,-57,106
3,8,22,-5,-41,-15,-38,-7
28,40,-31,-2,14,-51,-78,31
-80,61,58,24,-4,58,85,48
-99,-75,-54,20,-63,-123,-50,-28
76,118,10,52,94,105,114,127
17,70,50,44,4,40,-15,-128
-9,-71,-12,-15,-7,-54,-95,79
127,-13,16,-37,-10,27,111,17
-7,56,-16,-28,-62,-15,75,27
-74,-104,-90,9,24,-21,-93,21
-63,37,-36,-49,25,-2,88,-1
17,99,104,52,25,54,58,52
-128,-115,-76,-60,-28,-33,-68,7
46,42,-22,45,37,-15,56,-42
-111,94,45,22,4,24,1,45
99,50,-29,40,-25,-6,-73,6
-93,42,3,-5,-12,-31,13,118
-10,91,36,-13,-38,13,80,74
-66,9,-27,-34,5,-35,-12,-91
-31,-14,-5,27,37,0,-68,-109
-26,-14,49,27,-9,29,13,34
-90,-127,-79,-61,-35,-43,-97,-128
24,78,2,43,-3,24,-5,-14
84,-37,48,-49,0,15,-5,64
30,21,30,121,25,-45,-112,-25
20,127,58,-28,-19,17,59,127
-6,-33,-1,-12,4,49,3,45
76,38,-21,1,15,-50,-62,61
-52,-52,-6,-32,-3,23,65,99
-24,-51,15,5,14,-8,28,56
-48,-115,-31,-15,-33,72,127,127
-51,2,-13,-103,-36,-71,-34,-128
-20,-30,-71,81,65,-2,41,127
60,43,19,-13,-8,-23,5,103
14,19,-3,-5,-24,-47,-50,34
26,22,-33,20,37,-3,-44,127
124,-25,24,-57,-58,37,104,19
6,-49,-10,-10,14,-36,-97,-57
43,-18,0,12,34,3,13,53
-20,-43,9,29,-12,0,31,-36
21,24,44,-11,-13,-9,-32,-128
-29,50,11,1,-42,13,25,78
16,-69,-31,33,30,18,-85,26
-47,59,-13,14,72,50,82,127
-16,40,21,-2,-10,-39,-36,2
-29,121,24,-11,5,28,62,5
-75,-82,17,-5,-52,-49,-33,-128
-69,-40,-34,23,6,-24,-67,-109
-2,-15,-3,-14,7,25,-26,-46
-7,-24,3,1,1,17,37,-128
35,20,-5,-12,-6,-18,-24,-51
15,-19,3,19,8,6,-17,-27
53,40,29,-22,-6,5,7,-80
-57,-68,-9,4,1,-5,-7,-77
-1,7,-12,-20,4,-11,17,-50
-18,-20,-8,-2,-8,17,38,7
-17,-21,-11,-10,-9,-3,5,-20
20,-26,-11,0,-5,-11,-30,5
3,20,5,-5,9,-11,-8,27
0,1,-10,16,0,21,1,-18
17,14,20,-1,-8,-4,22,14
30,-37,-14,2,4,-19,-77,-13
-28,47,-6,-14,-7,-2,15,15
-2,3,8,6,-7,-30,-29,32
72,15,4,-10,7,37,47,-5
45,-5,-3,0,6,20,-62,40
72,13,2,-5,-4,-15,-26,44
-11,-7,10,2,-10,-13,1,-24
-38,-6,-8,-2,4,4,13,21
-1,20,14,17,16,25,15,-4
19,31,10,-2,-3,-6,48,96
9,1,0,4,7,11,-1,-10
21,1,-6,-12,-12,-15,-10,14
-16,-10,-12,-5,3,8,-14,-12
-6,-6,-2,-1,-1,-16,-20,6
-12,4,4,1,-7,9,28,-22
-11,-1,-9,-1,0,6,28,-16
-17,-20,-25,-4,-5,-17,-4,-11
-3,9,4,-1,6,7,-14,-48
-2,7,1,-1,-7,0,-3,25
7,-14,-5,-2,-3,-17,-23,12
-7,-22,-6,1,3,15,-2,9
24,11,3,-5,-3,-4,27,-2
12,0,-7,0,-2,7,-4,-4
-17,6,9,-5,-3,-7,-6,14
29,0,0,-4,-6,-7,11,-8
13,1,-7,3,6,6,-20,5
10,-1,11,0,-4,-3,-33,-38
-14,8,64,6,-6,3,54,-51
36,-9,-87,-17,-15,-18,-15,3
-27,-16,-52,-21,-1,-14,-11,-28
29,4,9,10,3,24,40,26
8,4,4,0,-2,-7,-19,14
1,6,84,13,4,2,9,-13
-5,-12,-99,-11,-7,-5,9,-14
-14,-4,-12,-7,-5,-13,14,-16
-3,-7,-4,-1,3,-3,-16,4
-2,18,7,5,3,5,2,30
-3,-28,13,0,-4,-3,-22,-9
-6,6,-3,-5,-6,-7,10,41
-2,6,-24,0,6,25,17,-71
-18,-21,-1,1,3,-4,9,120
73,33,28,7,-4,-6,-4,-104
-36,-77,-13,-9,-2,-14,-26,85
-77,47,-3,1,6,18,60,126
59,-22,-4,-3,-2,-5,-11,81
78,96,50,27,-2,33,29,108
-67,-95,-33,-32,-8,-35,-54,-84
-25,10,-14,-2,3,-37,36,-90
49,83,24,2,1,6,7,81
-110,-91,-8,-19,-9,15,46,76
36,127,16,9,-7,34,46,-26
-33,-63,-27,-1,-33,-50,64,-18
-128,67,-64,-11,9,-33,-108,-128
23,84,22,-17,18,-33,58,85
79,113,34,-29,-16,52,127,127
72,110,58,54,-35,-14,16,-4
31,20,-62,-17,0,-23,63,-12
-4,58,13,-3,-24,-44,-68,-60
-45,60,72,18,24,45,53,80
103,40,37,-54,-7,94,-65,52
112,-120,-38,90,-9,-10,48,-111
-51,78,19,-14,25,2,-31,92
48,-89,-5,1,-30,-1,49,62
-68,-85,-61,-41,-15,-58,-91,-16
-72,26,38,-5,-13,44,82,75
-13,-57,24,-26,22,87,65,-80
0,-40,-35,28,16,-56,-52,127
64,74,-12,0,-2,-79,82,127
-35,88,28,0,33,65,78,105
35,-25,40,-1,-110,-79,-54,-49
-7,117,-83,84,43,16,-47,-7
55,51,-53,-5,56,42,15,82
11,47,40,-10,-26,-43,-78,-42
-29,-100,-61,7,3,76,73,116
-64,-2,-3,-57,-74,-7,70,-81
17,-21,14,-80,-94,-39,-57,-41
30,101,-49,111,92,39,17,14
-90,36,9,-40,32,-42,-29,45
90,15,26,-1,6,21,15,-16
37,32,99,40,11,17,-28,-4
92,34,36,-84,-73,-9,31,51
-54,-123,-59,9,-17,-67,-118,-71
-77,99,5,-9,8,-14,85,69
25,70,17,8,17,97,64,73
5,-50,6,-5,-15,-13,-11,14
87,123,-25,13,-1,-22,69,-1
-55,-87,-29,-15,-17,-54,-64,-112
-61,7,-9,12,-17,49,75,75
-115,-128,-56,-75,-4,-39,36,-65
51,-23,10,23,45,-10,14,57
60,46,37,24,-15,83,-42,54
-101,-28,-39,-4,57,-4,-12,-35
-33,121,47,53,13,15,76,56
37,-33,-50,-36,-23,-13,-49,-128
-8,87,45,5,-23,9,-12,62
74,-128,-77,-22,-22,-96,-128,-19
-82,-80,-61,-2,63,74,-89,9
-36,105,40,18,-12,7,73,5
53,4,-10,4,37,-36,57,16
58,-7,1,-9,-15,24,19,76
3,-17,46,-15,-33,-13,2,-64
-57,8,-34,10,-12,24,74,32
-43,-102,-30,-16,9,16,2,-88
-88,-31,10,16,44,-17,-2,67
75,27,-7,-5,-28,-52,-7,29
-65,-30,12,2,16,21,-51,6
26,33,25,-17,-19,35,15,30
-38,-3,-15,9,-6,-25,-32,-66
-16,-29,-6,-7,-6,-7,-22,-4
81,74,11,-25,-29,22,84,94
-31,-72,-38,21,60,-16,-30,-128
-45,10,-13,20,11,10,-19,-55
2,15,23,-17,-13,-26,-22,75
9,13,28,-1,-10,25,75,-8
-34,-22,9,-11,-8,-58,-35,-19
-25,6,2,15,9,20,20,-5
-12,2,11,-14,-14,13,17,3
35,-15,0,12,5,-55,-64,-14
-39,-10,-9,-3,1,50,23,37
54,25,7,-6,-8,-4,-28,-44
6,5,12,-2,-2,5,45,-6
-44,-33,-15,9,9,0,-29,-81
41,25,0,-5,-7,-31,-7,61
-16,18,6,-3,-5,-1,9,19
-5,-18,0,0,-1,13,-21,-11
1,-1,4,10,14,14,-39,30
29,-11,-7,-8,-8,-13,-8,3
-53,-47,-19,4,2,14,11,-61
-10,-25,-12,-6,-5,-8,14,22
34,-4,2,0,-4,-17,-8,1
13,1,-1,-7,-11,-29,-43,-14
32,10,7,7,-2,19,39,106
-17,-28,-7,-3,-3,-8,-21,60
-25,-19,15,3,8,6,-5,-19
-40,31,13,2,-4,-6,9,7
-34,-13,-10,-8,-10,-23,2,11
3,45,3,-7,-1,2,2,-1
-5,9,1,2,1,11,10,-4
-4,13,-3,-2,-4,-8,-26,-11
3,33,10,3,8,5,3,-39
0,-10,6,1,-2,3,3,-21
2,5,-2,2,-1,-4,-30,-34
8,2,-2,-2,-3,-3,22,2
13,13,0,1,2,9,-20,-44
11,-9,11,-5,-2,12,-14,-20
16,-5,-4,5,5,14,49,45
0,23,24,-3,-6,-4,-23,6
-1,-6,1,-1,-4,-9,-1,-14
-1,18,6,1,1,-11,4,55
-23,-44,-13,-1,3,-6,-33,-36
-3,-15,-8,-3,-3,3,-6,13
-5,5,-7,2,-3,-7,18,-9
9,16,2,0,0,-3,-13,1
31,12,6,-1,0,-5,-17,25
4,-11,-11,0,-1,-3,-4,-25
2,11,7,-3,-3,-4,-13,19
-18,-13,-9,-4,-12,-44,-24,-19
-26,12,2,1,0,10,2,25
3,10,-10,-6,-5,-11,-27,-108
24,-29,-6,6,0,3,15,52
-46,-21,-6,-2,0,-10,-54,-80
1,-1,-3,-4,-3,-1,1,34
14,83,21,7,-3,10,58,118
-20,-85,-35,-14,-21,-36,-81,75
-24,32,1,3,6,2,-3,-55
-20,19,10,1,-5,-4,-24,51
41,87,30,16,7,18,50,58
13,-70,-19,-61,-52,-3,-35,-53
-57,7,-23,22,48,21,-45,-89
42,51,54,42,17,61,31,33
-123,-98,-79,-4,-60,-112,-120,118
-64,127,28,-65,17,39,7,26
105,-128,2,-11,-46,10,48,-9
-98,127,33,72,-7,-17,-116,-39
-85,-109,7,19,10,55,99,-97
-62,5,-62,-75,54,-70,-46,13
51,114,23,-19,-31,-8,89,127
-58,-87,-29,6,-11,-33,-80,17
35,11,0,10,-5,28,50,53
42,-33,64,52,21,100,86,74
68,-45,5,-20,2,-30,-5,-19
-46,31,7,-51,-11,-33,-40,92
127,-46,-43,-39,15,11,22,62
-89,127,30,72,8,11,-11,-84
98,-64,-24,-9,-4,-7,17,127
11,63,56,-18,-76,-23,65,-128
-60,-10,-60,-55,81,31,-110,-128
5,81,12,6,-21,31,40,98
-9,12,31,-17,-66,-4,-57,55
75,-9,-63,-27,75,-62,-127,-83
-32,50,-2,-4,30,19,103,127
67,43,87,123,-49,9,112,-128
-100,-79,-77,28,74,-45,-74,-112
20,71,23,-21,-77,6,89,127
107,19,48,2,30,26,69,36
-24,-8,-31,-8,-13,-45,-122,-44
-64,23,17,-10,-16,5,21,81
-24,32,29,17,36,78,127,-43
33,-76,-71,17,-60,-97,-128,-112
41,93,9,-50,-25,-22,0,-11
-18,-6,-5,-12,49,-2,-33,62
-18,-15,-20,-28,28,14,54,127
-54,-49,37,109,-25,58,-63,-57
-16,-69,-8,2,0,-36,-74,34
-8,105,26,30,46,64,61,100
-26,-65,-2,-16,2,-35,-85,47
-86,-16,-16,-20,22,-16,-78,-15
-16,-32,-39,-17,-5,-6,43,127
-87,52,16,29,-14,9,3,92
72,-26,-8,-19,-1,35,114,-2
-12,37,30,-21,-16,-24,8,-27
-20,-71,-18,-3,13,-60,-47,-74
16,47,8,-25,-8,58,56,-66
0,-48,-21,5,-5,-23,-4,-69
39,6,11,-10,-17,-27,-31,26
-25,2,0,14,13,39,-8,-4
20,-5,-4,-5,-23,-10,26,-46
40,-37,-15,9,2,1,-23,-33
20,13,17,3,-2,18,55,28
10,-5,-4,-11,-5,3,-4,13
-5,-3,2,-3,-2,-29,-29,17
-7,-19,-18,7,16,25,-14,-51
15,41,3,-16,-3,12,27,22
-1,-20,-4,-1,2,6,26,-5
-15,-19,-9,0,-17,-15,-42,-35
8,6,1,7,0,-5,16,5
-11,10,3,-9,-12,-13,-10,-3
19,-14,-8,-2,-1,-3,7,4
13,15,0,6,-2,0,5,-21
-6,-10,-4,-4,-1,4,-10,14
4,16,6,-3,-4,-1,1,-8
1,-12,-8,-1,-1,-29,25,6
2,3,-2,-5,-1,23,10,-23
8,-17,-7,0,-1,-2,-29,-9
-13,4,4,-5,-5,-1,-8,9
20,19,-3,5,4,0,9,6
-6,-13,-3,-6,-11,-20,-8,-33
-8,-22,-11,-2,2,-5,-44,3
-21,8,9,7,4,-2,27,50
4,-14,-6,-8,1,-2,-45,-2
55,22,0,3,-4,3,24,-59
-45,-38,-8,-3,-5,-9,-22,-59
-10,23,-18,-8,-3,-5,-11,26
-19,-2,-3,1,1,-2,28,1
0,5,-8,-1,-5,-1,-6,27
6,30,-6,3,-1,-9,8,73
13,-35,5,-8,-6,3,25,-112
56,-2,-2,1,3,13,-45,87
-3,12,1,-2,1,-8,-29,-10
-33,3,3,-1,-8,20,36,-14
-2,10,4,-4,4,-18,39,-46
36,-9,-2,5,6,18,14,-13
-29,5,6,2,4,-4,-27,18
0,-18,-1,-1,-2,4,4,22
15,6,5,-1,-7,-3,-42,16
-17,-6,-4,-3,0,1,27,-12
-35,-7,0,-3,-7,-19,7,-26
43,4,-4,1,2,-1,7,-61
-11,-2,9,-1,-3,6,-52,38
4,0,-4,-1,3,-1,22,-5
-4,-13,-3,-1,-5,-11,-29,-10
9,-2,-5,-1,-1,-2,14,21
-7,-2,15,-1,0,6,-1,10
-3,4,-6,-2,-4,-3,-11,-20
2,0,-17,-4,-4,-1,-4,-14
-1,4,7,-2,-4,-5,10,33
16,-8,-4,-4,-5,-1,-19,-82
-18,-4,-3,-3,-4,-5,6,-6
10,-1,3,-2,-1,6,6,40
3,3,1,3,10,-7,2,-5
-13,1,-3,-1,-10,-9,49,76
-12,5,8,-2,1,22,4,-25
25,-10,-5,1,-5,3,12,84
6,-7,-8,-7,-7,-15,-71,-85
-8,-10,-7,0,12,-2,-6,32
0,6,-1,-1,-5,-4,-16,2
-6,5,6,-1,-3,3,16,59
24,-10,-1,3,2,1,-55,42
33,54,2,2,-4,-3,-19,38
11,-40,-11,-8,-1,-3,-5,104
-7,47,12,10,6,-2,-11,-102
36,49,-3,-2,-5,0,9,127
-54,-95,-11,-9,-6,-3,4,-128
54,102,27,11,6,9,27,-41
-95,-120,-24,10,-13,-4,-7,127
-4,21,5,-25,-7,33,71,26
-8,84,-20,10,21,-7,-33,112
6,-4,16,16,25,58,89,58
61,-54,4,13,12,-15,-82,-111
28,54,7,3,-16,-14,-23,78
97,60,49,13,-30,19,65,31
-115,-10,-49,-26,49,-21,2,-23
50,127,29,7,-13,12,-1,35
-26,31,26,-20,34,16,37,-128
127,-43,-10,-6,-41,-19,8,98
-10,26,-21,8,20,-52,-125,25
75,37,-4,8,-7,2,42,23
-7,-45,-35,14,-21,-54,-96,-39
-128,61,48,10,31,67,101,68
23,-80,-81,-100,-87,-58,18,-128
-119,70,16,59,-6,-48,-97,-52
-5,14,25,-8,32,61,70,88
8,-4,6,10,-5,11,-48,23
-35,39,32,54,-10,-42,-95,-12
-25,-124,-32,-61,7,30,42,-70
5,44,-42,1,-5,-38,-90,-63
11,-6,-27,-6,26,51,60,-23
42,127,103,48,6,64,-3,-15
52,-110,-58,-54,-45,-85,-98,-86
-81,81,10,15,20,30,65,105
-13,60,-30,-22,-9,-39,54,87
127,78,55,40,16,48,41,127
11,127,28,-15,-20,29,30,-92
-41,-128,-103,-79,-48,-57,-50,106
-69,115,-8,51,66,27,27,103
-76,-53,36,13,-15,-25,70,88
29,47,-32,6,-5,-7,-55,116
121,81,40,-5,-21,2,71,55
23,24,6,-15,-43,-46,-45,-113
-64,-108,-39,-23,40,23,117,2
-14,-15,-18,-19,8,16,36,-25
-32,60,26,17,-16,-37,-83,23
92,6,-14,-4,-18,22,62,78
35,-5,-2,18,5,-53,-93,-39
13,2,15,-68,-11,-7,5,127
-27,-68,-35,56,46,7,55,-52
-46,5,9,-6,-6,23,26,4
-14,-37,-26,-24,-24,-2,-1,-65
2,12,31,14,-18,6,6,-46
9,7,5,7,63,10,-13,-29
-19,-77,-13,-4,2,-19,-79,-82
-9,5,-19,-15,-10,1,-13,-98
-3,8,14,30,-5,-2,44,1
31,-14,15,-3,-20,20,15,-42
-37,-60,-5,-3,0,-30,-77,-61
5,9,-14,-15,-1,31,5,29
-29,-3,-1,10,15,-2,10,35
-8,-33,0,2,-16,-16,-30,-45
1,-29,-11,-26,9,-11,-32,-39
41,15,-7,2,-27,-30,-24,80
83,-34,-2,10,20,36,-6,-38
35,-14,-11,-1,8,7,44,-1
-2,1,8,8,-17,-20,-34,28
-12,1,-6,-6,-2,-1,-5,1
-23,-2,-1,10,17,4,43,18
-11,-5,7,-4,-16,0,-8,-1
-4,-9,-3,-5,-7,-13,-2,-31
-23,4,-3,-4,0,5,13,-9
-26,-2,-1,-5,14,4,7,21
-2,8,11,6,-20,1,5,0
-13,-9,-1,-7,5,4,-5,-6
-8,3,1,-4,-3,1,-10,4
-4,5,2,6,2,-1,11,4
3,4,8,-2,-7,2,7,-7
11,-18,-11,-4,-7,-11,-9,-13
0,0,-5,-3,2,-3,-1,9
-5,1,-6,3,11,5,9,7
-10,-13,3,0,-2,6,14,-9
-8,-7,-8,-7,-1,-7,-14,3
-3,7,-13,-2,-7,0,-5,5
-9,4,-6,-2,4,-9,17,8
-64,-3,5,0,-1,38,39,10
-7,-4,10,-1,-3,-3,41,48
18,2,0,-2,-10,-3,-3,-8
-4,-1,2,1,12,8,13,-7
4,-1,-3,-4,-7,-19,-29,-2
-2,-6,2,-4,-2,-4,-16,-2
-12,-7,-2,-2,2,6,12,0
-7,-4,-4,-4,-6,-11,-8,9
8,2,1,0,-5,-7,10,1
-1,-6,-2,-1,5,-4,-18,-12
6,2,-1,-1,-2,3,-3,-1
0,1,2,1,3,2,-10,-10
8,1,-3,0,0,1,7,-5
12,2,-1,0,-2,-3,-6,-17
-23,-5,0,-1,-3,-4,-14,9
-12,7,-1,-1,1,1,7,68
16,-4,-4,1,0,13,-51,6
11,-15,-8,-6,-6,-8,-20,41
-2,-8,5,2,0,6,62,29
-46,6,-3,-5,-7,-25,-30,55
27,5,1,1,0,17,57,86
-12,50,6,1,-4,-1,13,-35
14,-3,-6,-6,0,11,15,-69
-34,-31,-15,-5,-9,-39,-35,-124
-20,20,-7,-5,-7,-14,-5,10
-2,-6,-1,-3,2,2,-28,47
-73,114,36,18,12,29,61,127
33,-96,-8,-2,-24,6,-51,-19
-112,25,-4,-22,9,-33,-1,-127
-70,-48,-21,-17,-3,-10,-20,-9
10,82,16,36,-8,33,59,64
67,-34,-34,30,-35,-56,-78,-30
73,18,-28,-46,4,1,12,127
-115,25,41,-19,-53,17,87,81
14,-17,-44,33,87,19,-85,-73
-100,19,-6,-21,-38,-11,-14,127
-49,0,2,74,-9,33,73,55
-35,45,-43,-88,-15,-44,43,38
4,-77,-43,-33,11,-17,31,123
-58,40,24,4,29,17,-23,-71
23,71,5,-30,-6,-10,-16,8
-65,127,12,2,1,21,-48,13
-114,-112,-31,2,-17,-15,-30,99
97,98,0,-3,42,90,122,104
-81,-75,65,-42,-54,-15,-58,-59
16,0,-45,38,73,33,104,-87
31,-98,-5,84,45,22,-123,-76
-17,81,80,-83,-71,-8,11,127
-29,-102,-104,16,78,-11,-98,95
-38,69,84,-17,-92,-19,-104,-6
12,47,23,60,83,53,94,6
-126,-48,-99,-74,45,-4,-61,57
47,78,47,5,-70,41,45,36
36,-71,-32,-49,-58,-104,-89,-115
89,38,-15,-92,-75,-23,106,127
31,-29,6,-6,-35,-13,35,-128
-19,-38,-22,-11,-4,-43,31,5
24,-92,-28,47,49,-15,-60,115
94,91,44,-16,-45,-10,-118,-21
43,-70,-2,50,26,-10,89,-128
-6,52,-28,-13,-3,-22,-100,5
83,83,13,-6,5,62,25,-119
54,19,12,26,-24,-104,-125,80
-11,-16,18,-21,-12,16,59,127
89,-2,5,28,61,38,57,-113
-19,-65,1,7,-26,6,-25,108
-51,75,-3,-21,34,14,23,-80
40,13,7,44,14,12,5,3
-34,13,19,7,-34,-8,-8,-74
39,-86,-33,16,17,5,13,-17
-30,-84,4,-13,-35,-7,-7,-65
-22,-6,1,4,0,-5,-30,91
45,-4,8,14,29,-39,-32,-6
39,-4,5,3,5,41,34,127
-14,15,9,-24,-40,-22,-27,24
-9,29,-3,8,0,3,42,29
3,-35,1,-11,-16,-6,36,30
5,29,24,30,36,18,59,78
-51,-13,-12,-13,2,4,-8,84
-36,15,2,14,-1,15,-10,11
-66,20,0,-7,-10,3,-4,89
-23,-18,3,14,6,-9,9,-19
-7,-10,-4,-23,-20,-14,-45,-80
-21,-5,-2,10,2,-9,28,-39
7,-5,2,5,-9,6,18,-22
-3,24,7,4,-4,5,21,-1
-13,-22,8,-32,-20,-12,34,-50
7,10,5,27,47,13,-24,-52
-4,-19,0,5,5,8,-1,4
9,10,-10,7,-3,-8,1,-14
-16,-1,-2,-19,-16,-2,9,-59
18,1,9,2,-9,-6,5,-6
-5,3,-5,0,-5,2,3,22
-8,-21,-1,-6,6,-14,-29,-12
-16,5,1,1,-10,2,-26,-10
21,3,-8,-1,1,6,-18,11
-21,1,1,-1,-8,-25,-58,-50
15,-5,4,2,7,41,-9,-15
2,3,-5,0,0,1,5,-14
2,2,3,1,-8,-16,-18,-10
1,-6,0,-10,-5,-5,-24,10
3,3,4,6,6,-6,46,99
0,-10,-7,-1,-2,-10,-32,-61
-9,-8,-6,-5,-5,1,-13,55
8,-1,3,3,3,3,17,27
-7,-2,-2,-1,-1,-3,-19,8
-6,0,-8,-1,0,7,32,9
-2,8,-3,-3,-6,-4,-10,-36
-8,-10,-1,0,-1,7,8,-5
1,-11,4,2,1,-8,-4,-63
-17,-5,-3,-4,-1,2,8,5
5,-1,-4,0,-3,-11,-16,-33
1,0,-1,0,-3,9,23,14
-4,-4,-6,-4,-1,-11,-17,-18
0,-1,8,-2,-4,0,11,8
3,2,-8,-3,1,-12,-6,5
-4,2,-1,3,-3,-1,15,2
2,2,0,0,-1,-9,-20,-7
-14,-18,-4,2,1,0,1,11
-2,3,5,-2,0,-3,7,-14
10,1,1,1,1,5,26,52
8,19,1,-2,0,20,38,84
30,-32,0,-3,1,-9,-3,-49
-60,28,0,-1,-5,-11,-14,24
0,3,-1,-4,4,8,7,6
0,15,0,0,4,3,-21,64
-25,31,1,5,-1,-7,-18,-60
57,-34,6,1,0,13,12,-68
70,-23,-2,2,-15,-14,42,73
-73,49,0,-1,8,16,-16,-50
88,66,24,23,-11,3,35,127
-44,24,-34,-25,35,17,59,-82
-55,75,27,-8,-14,28,59,127
-36,-93,-61,-19,-35,-23,-127,-128
1,55,-29,6,21,-35,-85,84
-76,75,25,12,-10,-20,-12,127
24,-66,-31,-14,-4,28,39,-128
-83,79,31,-25,-8,62,40,49
46,15,5,-21,-13,-31,-42,-75
51,-39,-52,16,-3,-6,-72,-86
-73,-77,28,-16,-33,-27,7,112
-21,58,-41,82,-10,-7,122,-68
3,-110,-22,-89,-42,-14,-57,-66
-27,-4,45,110,-59,-34,26,49
66,-55,-21,-96,28,1,24,14
-84,88,-9,94,-25,-50,-43,58
40,-119,-38,-94,-17,16,102,43
110,105,4,-22,-60,56,113,114
68,-96,21,-72,-104,-70,-128,-128
67,77,37,44,73,-25,20,127
31,-39,3,-51,94,94,119,127
-71,-128,-5,102,31,-63,-86,-76
-10,127,17,27,-2,-4,17,127
54,46,45,-88,-7,69,84,20
69,14,-18,31,-28,-63,-126,-69
-45,-14,8,12,-1,52,41,64
26,104,-32,-64,24,-17,48,15
93,-9,-3,63,-16,-89,-128,99
-128,127,67,23,-10,47,87,127
-7,-71,-42,-88,-111,-57,-4,-120
41,22,-49,127,113,-3,-60,38
44,-30,-10,-88,28,29,112,85
-58,70,12,26,-20,53,91,58
127,-5,50,-128,-59,-65,-24,47
-102,-24,-56,83,35,17,-61,-16
-45,66,12,-23,-17,4,43,41
38,-94,-43,20,-26,-24,72,-128
-30,42,7,-27,41,-1,-56,-23
23,9,30,10,-27,36,68,-68
39,-46,-7,-18,-11,-38,-107,-57
-76,29,18,12,-1,2,15,-27
-11,-2,-3,9,25,17,19,-5
-69,1,6,-5,-5,-1,-4,-43
-41,-10,5,-6,6,15,-5,-54
-19,-97,-15,-6,-8,-23,-11,-81
-32,50,-13,9,39,38,44,24
-42,6,10,-3,-11,-6,-17,-14
-11,-67,-12,-24,-16,0,66,-44
-26,24,2,23,25,-4,-39,17
-10,20,4,8,25,17,11,40
25,-9,14,-17,-22,5,3,-23
26,-46,-4,-37,-24,-19,-14,-53
6,37,1,18,-9,-18,-13,1
19,9,-9,20,47,43,23,26
-8,2,13,-10,-17,-20,-29,1
12,-53,-19,-9,-3,-13,-17,-56
-32,7,4,-3,-7,7,4,15
-11,0,-3,-17,2,5,-17,9
-8,-10,-2,6,-4,-8,-4,-7
5,-22,-2,-3,5,5,-8,-8
12,21,-1,-1,-4,3,-21,1
8,15,5,2,-1,-15,20,32
3,-4,-3,0,5,10,-48,27
10,-15,3,2,-5,9,-24,7
-6,16,2,0,-4,-9,8,27
-4,1,-7,-4,9,6,-11,31
-18,-7,-15,-9,-10,5,30,-71
2,-33,-5,-3,-1,-6,-31,-8
-1,12,-4,9,3,-6,-91,52
19,3,5,2,4,4,43,72
-14,7,5,-4,-3,1,-23,-25
6,-9,1,0,-3,-4,-2,116
-2,9,0,1,1,-1,6,38
7,9,4,-3,0,5,7,34
9,5,3,0,-4,-16,4,6
-1,-9,-3,-3,2,2,-14,-93
-4,-1,3,4,0,8,21,9
-10,0,-2,-7,-1,4,-5,-62
3,-4,2,1,-2,-4,14,-3
-5,-5,-1,-3,-2,-4,-10,-29
2,0,-5,-2,-4,4,3,-36
-5,2,-4,-3,-3,-9,5,-25
3,-5,-1,1,-1,-7,31,-2
15,0,1,3,0,1,10,11
6,3,2,-5,-3,-11,-2,-10
-28,5,-4,-1,0,4,-9,-6
38,2,4,-1,2,10,68,127
-1,-14,-7,-1,1,-13,-35,-116
-5,0,-2,-2,-6,-14,-14,15
1,-3,-2,-3,-3,-4,-17,15
-13,10,-1,0,5,15,0,26
4,87,10,5,1,3,19,37
8,-87,-15,-4,-10,-10,-12,-125
-17,59,1,-24,-6,-15,-53,57
43,79,8,11,10,20,71,6
-73,-109,-29,-14,-12,-39,-99,21
-50,91,17,7,7,13,115,106
80,-4,0,1,-10,4,-14,-128
-103,19,17,5,-14,14,-14,-62
45,-39,-36,-45,8,-9,91,63
-90,104,32,37,1,72,61,69
-37,-128,-16,53,80,-30,-15,100
-88,-79,-6,-16,-10,-44,-76,-51
54,96,50,38,4,60,54,59
11,-128,-47,-61,-45,-50,39,-64
67,127,64,8,-4,79,116,110
127,-128,-18,-30,-67,-95,-128,-128
-33,56,-36,61,79,-30,-61,59
117,107,18,-31,24,53,64,39
-36,21,31,77,-18,-48,-120,-95
106,61,0,-101,20,63,105,127
102,-66,21,80,-79,-68,55,-57
-66,-29,-24,25,-71,-57,-28,88
70,-19,-70,84,82,39,64,61
66,7,-8,6,4,7,-87,-83
-81,-11,-6,-93,-14,1,90,-51
68,-56,18,-42,-5,-6,-113,53
4,-6,3,-21,-45,10,85,35
-55,89,52,8,-6,56,86,108
-68,-75,-49,-15,90,50,15,-61
-72,-56,-33,-20,24,-6,-75,94
52,78,18,-63,-23,33,80,94
113,63,7,108,22,45,-44,124
75,104,71,0,-56,-8,-60,-70
39,-96,-12,116,74,35,-8,50
2,-53,21,-35,15,19,18,80
-80,84,54,-39,-55,-5,-58,5
16,-48,-9,-46,28,-10,-5,127
102,-66,-31,111,-100,-89,-102,-128
76,108,-20,-93,-5,-34,-29,110
-47,61,14,-45,-57,-32,3,-30
-28,-81,-40,-81,-47,-24,-86,-64
3,127,38,-58,1,37,31,127
-106,7,-18,-14,-5,-3,-8,-128
-123,-52,-38,29,45,-18,-15,16
19,124,32,24,-19,-30,127,70
-110,-50,-24,1,64,22,-8,-73
-76,-71,-10,-14,-60,-41,-49,-33
7,-28,-31,5,20,-13,24,13
-32,1,2,32,-11,23,-57,10
44,35,20,-34,2,14,28,-1
-29,-17,-9,7,-8,-44,-71,-37
25,-28,-8,6,13,53,65,-48
2,-29,-23,2,3,13,-8,-11
-7,31,4,-21,-9,-15,20,-48
8,-9,1,5,-5,9,-23,-21
7,-38,-10,19,13,-19,-11,-15
-8,6,12,0,-19,9,-21,-1
-13,40,1,-17,4,10,10,-13
-7,-17,0,12,-17,4,-42,-37
-13,-29,-12,-6,15,-28,2,13
-17,15,-1,3,-1,26,27,15
5,20,9,-27,-16,-35,-17,-25
-3,-25,-3,2,7,2,2,-28
-10,-20,-13,-3,-6,-7,-5,-5
1,9,6,-2,-8,-2,-49,17
7,12,5,-23,-8,-2,17,-15
-6,-12,-8,24,5,4,-2,-15
0,-2,-7,1,4,-2,18,9
-19,3,-1,4,0,10,-7,30
-31,0,-7,-6,-4,-15,-23,1
5,2,-4,-10,-10,4,46,5
-8,-11,-5,1,1,-9,-5,-5
3,-4,-2,-1,-1,-1,-12,-61
5,14,5,1,2,-2,2,10
-12,-6,-4,-8,-5,-19,-7,-5
3,0,-3,6,5,3,-2,3
-1,0,2,-2,-7,4,23,16
26,11,1,5,10,8,30,-14
-8,-21,-5,-4,-5,-8,-21,-28
0,6,-1,-6,-7,-8,-12,19
2,2,0,-1,-2,-5,4,0
-3,7,-2,2,0,-3,0,0
0,-5,3,-4,-1,4,-11,9
0,-12,-4,0,0,-6,12,-5
-9,1,2,1,1,8,-26,15
-2,-2,0,3,0,-1,14,-8
2,2,10,-9,-11,-15,-65,-6
-7,-3,-7,1,2,49,44,-3
8,1,-2,1,-2,-4,4,2
3,-2,0,1,4,2,7,-13
-20,-1,-1,-2,-1,7,7,-23
2,-2,0,-2,-4,-21,-6,0
-11,-1,-2,0,-1,9,-4,9
15,2,6,-1,-2,-1,-7,-1
-1,1,-13,-2,-2,-4,15,3
3,-5,-1,1,-1,-11,2,23
-9,-1,-4,2,0,5,11,15
-15,3,0,-3,-1,-2,-7,-52
5,0,0,-3,-4,-1,10,-3
3,-3,-2,-1,-5,-6,-27,8
-18,31,14,5,4,12,62,104
33,-37,-10,1,1,-4,-61,-42
-4,12,-3,-4,-5,-17,-24,73
-7,6,2,-2,-2,-13,-3,-41
23,5,0,0,3,24,34,33
-9,44,4,2,-3,11,67,92
23,-18,0,3,3,19,23,-60
43,88,11,6,-1,-34,-58,127
-42,-85,-29,-15,-7,-16,-5,-128
-15,29,7,3,5,8,8,12
8,87,14,4,4,30,10,109
-68,106,41,22,9,22,82,52
0,-66,-51,-18,-31,-63,-124,-99
36,-93,19,6,12,3,-35,127
-3,24,-29,-23,-12,-38,-45,-13
62,64,35,23,35,110,80,49
70,126,46,32,17,-50,-82,105
-83,-53,-15,-2,-10,-42,-109,85
12,54,15,-9,-8,43,80,81
-42,-128,-43,-22,-14,-37,-41,-42
43,126,20,-1,-4,53,78,6
-34,26,-52,-26,-19,-12,-127,-128
-17,-13,20,-3,3,-25,-100,34
20,29,-16,3,2,28,111,64
-85,-95,-29,-1,7,-26,-44,-72
-100,75,33,-35,-62,-53,15,113
102,83,-26,-4,85,32,68,45
7,-77,9,12,-7,-8,-23,48
-4,62,7,18,0,54,-51,12
-25,-26,4,-15,20,32,47,99
23,-50,-10,4,-36,-36,-7,43
72,127,28,-19,-17,19,80,-45
14,-93,-17,42,37,2,-15,67
58,21,-19,0,8,-7,-19,-33
24,-9,8,9,-7,21,53,110
-53,-11,-23,-24,-1,-20,46,18
-17,-69,13,-10,-25,-28,-44,35
-70,69,-15,3,0,-15,-11,-50
-118,4,5,-1,-6,-15,-28,63
88,75,2,-6,-9,-8,15,-40
-14,-83,-11,-72,-41,-25,-57,97
90,32,-2,61,-6,8,-18,59
-46,-17,3,18,9,23,28,-24
-44,-34,-13,14,-40,-35,-65,-63
-39,113,37,-78,-12,43,103,69
74,10,-34,-9,-9,14,65,-69
42,-38,15,1,-21,-43,-128,-34
-12,-102,-34,-19,53,-8,-36,127
47,120,14,23,-1,-23,80,70
25,47,19,-7,-2,55,127,127
-16,29,20,8,-14,25,-34,-16
-4,3,-4,-17,-1,-24,-31,6
-27,-56,-19,4,2,-8,4,26
28,-9,16,4,0,2,2,-58
-26,-34,-16,8,1,-11,48,-78
-59,-38,0,-2,-19,-29,-78,-57
2,12,-6,16,6,10,7,-41
-23,-29,-3,15,14,-36,50,-53
6,-10,-6,-13,-2,40,-16,-24
-31,-31,-9,1,7,-6,-59,-11
12,1,1,11,-1,12,40,-53
6,0,8,-8,6,-6,-35,-18
-19,-26,-17,-11,-12,-20,16,-9
-8,7,-1,1,-14,-5,-19,-17
-4,11,-2,12,9,2,-12,-13
-16,-16,3,-5,0,-3,-25,4
-5,1,-4,-3,-6,-15,-7,-14
-13,-8,-2,10,4,13,-24,-11
7,9,3,0,6,-13,-21,-13
-15,-16,13,-5,-7,-20,-22,-9
1,-11,-25,-4,-7,-7,-3,8
6,3,0,-1,4,-6,-7,5
-7,-7,-6,1,-2,5,8,10
6,1,3,-2,-1,-3,-23,0
22,1,8,1,-2,-10,1,-33
-22,-3,-1,-5,-9,-7,-4,1
4,0,-6,2,-4,-6,-26,-3
-3,5,2,6,17,19,6,17
-18,-7,1,-4,-4,-10,-5,-16
13,4,-8,0,-4,3,-10,-1
1,0,7,4,-2,0,6,-10
7,-3,-5,-2,3,6,5,-3
-16,-8,-6,-2,2,8,11,-4
-5,3,3,1,-7,-8,-7,-15
-4,0,-3,2,3,3,-4,2
-4,-5,-5,-1,1,4,32,-6
3,1,0,-3,-5,-29,0,-8
-4,-8,-3,2,0,9,-57,3
4,-1,7,-1,-2,-8,-5,-2
-3,-9,-15,-4,-1,-2,-11,-4
-9,0,3,1,-2,6,97,-6
8,4,-2,-2,-1,-13,-20,1
-25,15,-2,1,2,2,-6,52
-2,-17,-2,-3,-6,2,17,-48
9,4,-1,1,-1,-2,-21,75
-15,3,-1,-2,-1,-7,-15,-24
46,-4,-2,1,-1,10,43,61
-25,25,1,-1,2,10,-25,45
-21,-63,-13,-6,-6,-20,-55,-55
-10,11,-1,-3,11,8,34,-38
-17,26,8,6,4,5,1,36
4,41,4,2,-12,20,17,87
-4,-51,-6,-36,16,-8,-48,-99
-37,-43,-1,21,4,-3,-16,94
-4,73,0,-4,-6,-4,-92,-128
95,-39,-5,-6,-12,4,45,0
-87,77,-14,-3,-26,-12,-23,-69
-58,87,-16,-14,-17,-60,-44,-119
86,-126,-14,-23,-4,23,-14,-79
11,21,-4,2,-2,-23,-32,9
-6,111,24,12,20,77,27,111
-4,-19,43,12,1,44,79,3
-98,-3,-51,-8,-33,-85,-50,10
-56,-47,-4,-16,27,24,62,69
39,51,20,-15,-22,-38,-15,-55
33,-48,-15,-33,22,82,112,127
-76,87,17,33,41,8,-31,63
-19,-107,-18,-28,-33,-36,-127,-128
-43,51,18,24,-35,-27,-73,123
-4,79,52,-71,-64,-6,-76,-72
-65,-68,-19,79,-13,14,92,-63
-63,125,15,-19,37,36,6,-25
78,-102,-83,127,113,-26,-32,127
-71,56,-28,-22,-30,-75,-102,-128
-15,-128,0,-58,-65,13,62,-16
70,127,38,-48,-30,23,45,-60
-38,43,4,-65,-45,14,0,-56
89,-56,-8,40,19,38,73,106
75,13,-29,-33,6,-52,-93,81
-38,-108,-39,7,25,-42,-15,127
88,59,19,-16,-5,26,127,113
19,-72,-5,-76,-39,-32,12,50
-60,127,36,73,21,13,25,8
47,-128,-50,-31,27,-10,-14,87
-1,101,37,75,65,57,50,78
-128,-83,-2,-6,7,-31,24,-8
12,-87,2,-23,-16,6,-21,127
88,87,2,10,-37,20,49,76
88,14,27,-50,-19,-17,34,-19
-50,61,-18,123,3,12,19,-84
6,86,-3,18,49,-7,-20,-17
-6,46,13,29,-1,22,24,-21
-17,-23,13,-51,-36,-39,22,64
62,69,13,-24,-27,31,31,-17
60,-102,-5,-18,-25,-41,79,47
-84,6,-12,19,37,-11,-58,-17
-55,-53,-5,-14,-25,-10,11,27
40,-8,-13,8,31,27,-90,63
75,40,10,-21,3,37,59,53
-2,-15,18,-9,-25,-14,-5,-52
-34,-82,-25,-12,-13,-5,-48,-103
22,-14,-11,13,20,-38,5,52
5,16,12,-22,1,-1,-48,-71
-37,-18,22,14,-17,-21,-15,-22
-16,-30,-25,5,-2,-34,56,-51
4,9,-2,5,9,15,23,35
-40,2,-23,-24,-14,-2,-21,-11
-30,-4,6,12,1,-7,-42,-25
-10,-10,-1,0,7,30,-24,12
15,0,12,-11,-2,-11,-8,13
-17,2,2,-10,3,17,27,-19
-10,-4,-9,12,-8,-6,-25,19
-5,-19,-2,-11,12,11,-23,-22
-10,-9,-4,4,-4,0,-15,-4
-21,14,6,0,-2,-3,-13,11
-5,5,-9,1,-4,-12,-30,7
-10,-19,3,-6,-11,6,-5,-19
-12,-7,3,-5,6,7,38,-22
30,15,4,-2,7,0,11,68
-28,1,10,-3,-4,-5,-25,11
2,-19,-6,-4,-4,19,3,-33
4,-5,-9,-1,7,-11,-10,10
-21,11,17,-1,-1,30,66,-13
-2,-3,-24,0,-4,3,9,-5
-3,11,0,1,-5,-2,-41,-22
-19,-18,-2,-2,0,-14,4,32
-7,0,-11,-3,2,3,-20,-21
31,6,-1,0,-2,7,20,26
-36,-3,-8,-3,0,-5,47,16
-15,-32,-7,-4,-12,-33,-107,33
8,23,8,-4,2,21,58,18
6,-6,14,5,4,11,54,79
41,-7,12,8,-4,-21,-50,-23
29,-28,-5,-7,-1,13,112,52
54,29,-2,0,-1,-4,-116,-8
-95,-45,-2,-2,-2,-22,36,2
60,15,2,1,2,28,-57,-6
0,-2,-8,2,2,17,41,33
-81,60,-7,-4,3,-26,-107,45
20,-22,1,-3,-1,28,46,-5
-108,-28,-22,-14,-13,-27,-53,-29
-19,41,3,-1,3,-10,-14,-12
44,8,28,13,14,50,127,127
34,-56,-2,8,2,-47,-120,-80
-32,-65,-13,-11,-10,-25,30,82
19,16,11,-1,-6,-14,9,110
-19,-44,9,1,-5,-37,-23,89
15,24,1,-1,6,88,49,116
-61,-71,-5,11,15,28,-92,-67
68,47,3,-6,-9,-36,-47,70
-91,-8,10,-5,-3,-21,39,60
-68,35,35,34,28,64,78,-94
5,-31,-13,-14,-21,-68,-88,-4
-69,62,-62,-23,-9,-2,-16,67
-14,85,20,2,12,30,57,-9
26,-86,-40,-13,-30,29,102,19
-85,127,32,-31,9,-10,20,-26
107,-128,14,18,17,34,31,-128
62,-24,-6,13,-13,-53,-118,-128
36,71,11,2,6,33,85,127
110,15,42,28,-29,1,-21,-19
-118,78,-6,63,56,-4,-73,91
-128,47,44,35,7,16,28,89
49,-79,-83,-86,-78,-110,-128,-128
4,-4,-6,55,7,-25,15,127
-35,78,5,-80,-21,56,126,100
-41,27,20,9,10,5,88,-39
-44,-12,9,25,20,-71,-99,110
-67,-2,-32,-48,-20,24,56,-37
-11,70,30,31,3,-22,-119,-128
-5,-71,-54,-41,-38,7,120,71
-42,-14,9,-4,8,-3,-40,52
42,11,7,5,4,-8,-59,32
-39,29,19,30,26,12,22,102
-4,31,12,-8,3,21,-120,-18
7,-30,28,27,10,-3,-14,17
-94,-72,-31,0,11,8,-52,6
48,-29,13,2,-5,27,95,-77
22,-57,-18,-2,-27,-44,-98,-15
16,-85,-36,-8,3,-27,-10,-34
8,127,31,4,25,35,120,-27
12,-25,13,1,-8,-6,-65,61
47,-44,-47,-25,-15,-10,-99,-113
-78,23,3,0,2,23,-16,-54
-36,19,3,10,-7,-24,-59,53
-53,-25,10,3,16,9,-86,13
-20,-71,-27,-3,2,42,-2,-32
39,126,6,-11,-13,-46,51,-69
11,-54,-8,-8,1,9,84,12
-72,-11,-18,-16,-21,-51,-13,-81
48,5,-3,-2,2,9,61,13
34,71,9,-2,10,-13,-84,-76
23,-38,-13,-7,-9,6,35,-11
-41,-14,-6,-4,-8,-5,2,-69
-7,-7,-6,2,7,-18,11,-29
-3,3,11,6,2,17,27,55
40,12,-4,1,7,10,24,-14
61,-31,-13,-4,-16,-3,-15,7
26,29,4,-5,2,-8,-26,-23
-20,23,4,3,3,8,12,43
23,1,-1,0,2,4,-24,6
6,-5,-17,-11,-17,-13,-19,-35
-23,-5,-3,-4,-1,-5,37,16
-16,33,13,9,13,20,26,4
11,-9,-5,-8,-9,-12,-20,-4
22,-22,-6,-4,-8,-2,7,-3
16,11,0,1,10,11,-33,-11
11,8,0,1,-6,-9,-10,54
25,14,-2,-2,3,18,17,0
10,-4,-6,-3,1,-1,26,11
7,4,-2,0,-1,-8,8,-11
-11,15,2,-3,-4,-2,-4,-1
-29,-7,-3,-3,-13,-27,-17,25
105,2,-2,-3,12,18,57,-51
17,5,2,1,1,14,6,0
52,4,2,2,2,-4,-4,7
-8,1,0,1,4,1,20,-2
1,-6,-3,-3,-10,-4,-19,12
-1,12,-2,-2,0,-11,-24,-9
-21,5,-1,-1,1,9,26,-7
44,8,0,-2,-2,5,-5,51
-28,2,-4,-4,-6,-7,-15,17
-15,-12,-3,-3,3,-9,-49,-69
-35,29,4,0,5,26,-13,1
-24,-46,-7,-4,-3,-22,-43,46
53,23,5,3,1,15,80,4
50,11,1,2,-1,1,50,28
9,-3,-2,-3,-4,-12,-23,9
-1,16,3,0,0,0,-3,-26
8,5,-1,-2,-5,-1,26,59
-67,-2,3,7,4,-13,-30,-23
12,-16,-4,-3,-2,1,4,-61
1,17,0,-3,3,10,22,-4
-41,-27,-7,-5,-7,-18,-11,66
-13,-35,-10,-4,0,7,-9,-53
-58,27,-4,-1,-5,14,-21,8
40,-46,3,3,4,9,29,-128
-80,82,15,11,9,36,33,50
19,-85,-15,-6,2,37,70,15
45,46,6,14,7,-48,-61,-105
78,37,13,4,7,-2,26,109
-65,79,10,3,1,-7,3,-103
83,93,-22,-23,-20,-9,-89,-22
-22,-100,-13,7,-13,17,85,-42
-22,45,-6,-25,-11,-41,-43,38
-96,29,28,26,44,38,25,87
47,-38,-25,-17,3,16,44,108
65,-95,-11,-12,-1,-7,-109,-66
22,106,35,40,-34,24,92,84
22,-128,-68,-13,17,-49,-128,-128
-10,127,35,-74,19,58,108,127
35,115,6,71,-9,-41,41,127
-90,-80,-18,8,-26,-94,-100,69
44,127,53,-4,-23,79,88,117
-111,-57,-48,-35,-23,-32,-94,-128
-1,-18,25,63,-87,-44,-85,127
-115,110,-39,4,96,18,-20,-47
102,-55,-43,5,-48,-74,-23,72
-44,-35,17,41,-2,56,-57,-27
-75,127,44,-63,-18,94,125,-101
69,-126,-35,-31,-77,-76,77,-128
-110,41,-40,-26,88,21,-31,-28
104,123,29,13,2,-49,-37,63
14,32,-1,5,42,95,23,10
1,-45,15,2,21,31,-64,109
0,63,26,-89,-32,49,-61,-22
34,-107,-26,78,-13,-32,-27,-82
56,-36,-25,-23,29,-98,-115,127
-53,76,22,9,4,35,33,-5
53,44,8,-10,-43,-10,1,-27
-118,13,6,-15,-15,-61,-95,-9
-56,-59,-30,-15,-9,-33,26,127
-61,51,-4,-5,10,11,81,-27
25,21,10,21,-32,-60,57,-15
-50,-2,7,-2,9,36,8,25
-22,-6,-4,-8,12,-6,23,-63
12,-52,0,-17,-22,0,-9,-8
14,-45,-5,18,-2,5,-85,-49
61,1,8,5,15,0,34,3
30,-15,-3,-19,0,-7,16,-21
39,2,-2,1,5,13,-69,-36
32,-43,0,18,-9,-15,-33,4
49,15,2,5,-1,-17,92,21
5,5,-3,-8,-3,7,3,-34
50,14,4,0,9,23,-22,2
3,-36,-6,9,0,-30,47,-4
12,1,7,-4,-12,-40,29,25
-1,22,-1,-6,8,6,-22,-9
24,-9,-7,-5,-16,-16,-6,-26
4,-32,-3,-1,1,-4,-5,20
-11,12,4,8,5,-13,-47,-39
4,10,2,0,3,14,28,6
9,-6,-6,-5,-5,-12,-17,-32
-12,-16,-2,4,-6,-19,-21,3
10,16,3,4,6,12,25,25
-13,6,-2,-3,5,-4,-1,-10
-12,-4,1,-4,-5,18,-6,0
46,-2,3,3,-3,1,-15,6
-39,-5,-7,-6,-4,-2,-24,-11
10,9,2,-3,8,3,23,0
30,2,2,1,5,12,-2,-6
-16,-5,-3,1,-4,-2,-15,-33
-8,5,1,2,-3,-20,9,20
-19,-1,-5,-4,-14,-31,-7,-23
5,11,3,1,20,56,71,29
0,-11,-6,1,-4,-4,-16,5
1,7,3,-2,0,15,44,57
-24,-4,-5,-6,-6,-14,-7,-82
-9,-4,-3,1,-2,-1,-25,-7
-6,-4,-1,-1,4,-4,3,0
-6,2,3,1,-1,0,-7,19
4,-3,2,-1,2,3,-8,27
2,-4,-10,-5,-6,-13,-21,-2
-12,-8,-1,-1,3,8,-6,-9
-2,1,-1,-1,-5,0,-6,-3
0,-1,0,-1,1,10,-1,10
-10,-2,-2,0,-3,-1,-10,-17
-11,-1,-1,-1,4,1,10,11
0,2,1,-2,-1,12,-5,19
-13,-15,-3,12,0,2,-14,9
8,12,1,-11,0,-18,-10,25
-18,-11,-3,0,-7,-45,-24,-12
7,4,0,0,1,24,-20,31
-19,36,1,0,3,15,0,-32
29,-41,-3,2,-8,-7,5,17
32,41,3,-6,-3,-8,4,-50
-21,-49,-2,-1,1,1,28,13
-42,-12,-11,-11,-4,14,24,12
-16,51,5,2,1,21,-3,72
18,68,44,10,-12,31,29,56
-48,-102,-51,-17,-30,-56,63,47
-42,41,1,8,48,16,-12,-78
31,9,34,2,-9,11,96,37
-83,49,-43,13,-42,-34,-80,-59
-12,-54,-16,-27,-33,-37,-80,56
84,43,-7,-8,19,1,76,127
37,-34,-2,-30,0,-52,-120,-89
-85,-95,-17,55,9,2,-26,127
115,115,81,-49,32,118,80,21
-117,-119,-91,106,-50,-101,-56,-55
96,126,5,15,17,-3,70,106
-6,-2,-17,-10,-5,94,95,-34
-7,39,26,6,-38,-128,-128,55
83,-58,-22,-74,63,62,100,-6
-128,70,-30,-31,-26,12,69,-105
74,-82,23,34,-55,-45,73,105
-104,-17,-19,57,50,61,2,-65
30,127,-5,-110,57,42,-124,-32
-75,-128,-34,-34,-101,24,23,-47
5,52,-16,70,127,18,-46,117
98,-81,-4,-74,-51,35,62,-128
-19,88,48,127,8,-4,-10,-17
32,-115,-28,-33,-31,-43,1,127
-69,-51,1,-48,5,44,-61,-128
8,59,-1,-55,-6,-89,22,-59
-92,-17,13,46,0,-53,102,127
22,23,40,20,31,66,69,105
-69,69,-11,-19,-8,-7,105,124
83,87,-25,42,13,-41,-110,-79
-97,-120,8,-63,-51,-81,-53,125
20,94,27,41,21,15,79,67
-46,-50,7,-32,-8,-24,-9,67
-69,101,31,34,33,20,7,127
127,-57,-54,-49,-77,10,-11,14
-29,68,-6,22,28,-35,-128,10
65,80,-10,-27,-7,-25,-27,73
74,62,15,19,-9,41,30,110
44,4,33,13,-14,12,-35,21
-30,-93,-23,6,13,6,-12,-89
32,-8,2,-30,-15,-50,-36,-125
-36,-19,8,34,7,31,-34,-8
-26,-31,2,-8,-9,7,27,-45
-30,-20,-11,-7,6,-40,-30,-83
38,16,26,2,-5,40,10,-30
-21,-64,-24,4,-9,-12,7,-19
-31,-6,9,-5,-7,5,9,-28
-5,15,14,-12,-2,-5,-57,-29
24,-21,-14,13,-2,1,5,-6
-36,-34,-17,0,-3,-7,7,-1
1,29,11,6,12,31,-29,-5
-7,5,7,14,0,2,-15,10
0,-21,-1,-14,-3,-12,-23,-24
-23,-2,-5,0,-19,4,3,-7
6,24,7,-13,24,7,-3,11
4,-17,-8,8,8,-2,-21,-5
2,-13,-5,-4,-6,-4,-36,-18
-8,7,-1,4,-4,-3,25,2
3,1,7,4,-17,-20,-5,-9
-14,-5,-5,3,1,19,-66,1
25,4,-1,-11,-1,4,36,14
-30,1,3,3,6,5,-12,0
-27,-3,1,-3,-7,-7,-20,-48
-7,-3,-4,-2,4,-10,-9,-9
30,5,6,-2,-6,1,-13,-35
-4,-14,-6,-1,8,21,-17,8
-8,2,3,-2,-5,10,0,12
0,5,2,0,-5,-17,12,-16
-7,-5,1,-2,1,-5,-7,-2
0,-9,-9,0,3,-2,22,7
6,14,3,-4,-9,3,5,7
-2,-7,3,3,-1,7,5,16
-6,-7,-5,-4,-5,-8,5,-1
0,3,-4,-2,2,0,0,-6
3,8,8,-1,-4,0,5,16
-4,-12,-5,-2,1,7,51,-8
-8,-4,-1,-3,1,10,3,-3
2,-8,-2,-1,0,-15,-36,-6
2,8,3,1,-4,34,88,6
-3,0,-2,-1,0,-16,31,-3
6,-6,-1,-3,-1,7,-15,-3
-10,1,-2,-1,-2,6,23,12
7,-3,2,0,-4,-14,-43,49
6,0,-4,0,-3,-1,-10,15
-28,-1,-1,-3,-5,-17,-9,-64
10,0,-5,-3,-3,-15,-14,41
16,17,6,5,3,21,51,29
22,-9,4,1,-3,-16,-39,15
-5,-8,-8,-6,-1,-6,-35,26
-5,-8,2,1,0,1,10,12
-26,13,-2,-6,-1,13,20,38
37,-7,0,-3,-1,2,18,-17
-51,-20,-17,-12,-13,-21,16,-38
14,-46,-9,-3,-3,-6,-13,37
-76,52,1,-1,-13,-16,0,-8
17,-58,-3,-8,19,9,-16,18
69,-21,-3,-3,-8,2,-24,104
4,-26,-13,-22,-8,-14,-71,-128
66,82,31,37,28,8,9,110
-77,-113,-38,-15,-24,5,62,12
-49,125,32,9,19,7,-91,-28
-45,33,-5,10,-26,29,106,36
-100,-80,-3,-23,-41,-53,-128,-128
53,127,-33,-29,14,-37,-56,124
-47,43,12,23,-1,23,90,-22
46,0,-3,-4,-1,3,43,127
60,66,36,-12,-27,36,-58,-104
-86,-77,-13,84,29,-35,-95,-60
27,96,21,-81,-3,3,6,79
-24,-115,-63,-15,-40,-32,18,-77
-3,22,-16,18,7,-7,-5,-25
-42,99,33,23,-4,9,-51,-47
-17,-14,31,-7,-17,79,46,-128
-45,34,-57,-55,53,-67,-38,83
4,2,31,13,8,54,99,127
64,-64,-38,-84,-51,-23,8,-128
52,52,19,110,-5,-26,-3,127
52,95,22,-21,40,31,5,70
3,23,-23,-9,-9,18,91,-93
-92,-29,-20,-11,25,-18,40,-11
-4,16,-21,-30,-41,13,65,98
-48,-2,9,-1,-23,-25,-94,-126
126,73,-19,-37,17,-19,-29,127
120,117,68,77,0,28,-8,127
-76,-128,-76,-67,21,-56,-94,-126
-5,123,30,50,3,19,45,95
52,-66,-23,-45,-11,-20,17,-34
-26,-21,5,-6,-33,1,-53,-33
-7,-1,-11,-3,7,-17,33,30
-8,1,18,9,16,21,98,-26
-88,-6,23,60,-13,-11,-83,36
79,0,-15,-33,7,-1,18,54
59,-11,15,37,23,-8,69,99
-63,-26,-7,0,-16,4,-77,-6
-40,66,-6,-4,-8,12,12,-3
-17,88,4,-5,13,-10,2,52
24,48,20,11,19,29,-10,88
74,-21,21,3,-7,12,46,-48
-25,-105,-27,-5,-12,-45,-10,-36
-11,-1,7,0,32,32,44,-32
3,-50,-5,-3,-16,-17,11,-80
-12,-41,4,8,-7,9,2,1
-1,-33,-16,-1,12,-4,-15,-28
-9,14,13,-2,-15,4,3,-8
5,-26,-6,-1,-4,15,-3,-16
-11,4,1,8,4,-4,-32,-35
19,-1,5,2,15,-1,-3,30
7,-8,4,-6,-10,10,5,-8
-17,-16,-9,0,5,-8,-13,-30
3,22,9,5,3,1,-19,7
6,-22,-2,-9,-1,-2,0,13
-11,-13,-3,0,-5,0,23,16
-10,2,-7,3,2,-13,-35,-30
9,19,8,3,-1,8,8,3
10,-17,-5,-1,0,-8,-11,18
-16,0,-4,0,-8,1,-2,-12
8,8,2,0,2,-5,-5,2
10,0,3,1,-2,1,-10,-4
-2,-14,-6,-5,2,1,0,1
-5,9,3,-4,-1,0,-2,4
-9,-6,-3,-3,-9,-8,2,-12
2,-4,-1,0,-6,-4,46,6
-1,-4,-6,-1,0,-7,-38,2
2,5,1,2,3,14,31,3
0,-7,-2,-2,-4,-6,-10,-4
-1,1,-1,0,5,-16,-49,-12
-14,-1,1,-3,-2,25,82,91
-9,-11,-2,-2,4,1,-15,-106
10,-1,-7,-2,0,-8,-17,36
-1,4,-1,-2,-3,7,-6,28
3,-4,-1,1,3,-3,-44,9
-11,-2,-1,-3,-5,-1,3,32
-5,-1,-3,0,1,-1,7,-20
1,3,0,-1,-3,-10,-19,-24
11,2,-2,-2,-1,-2,1,-13
-2,-9,0,-1,-1,2,6,13
1,0,1,0,4,-1,-21,-22
2,1,2,-1,0,4,3,12
-19,4,-1,-3,-2,-10,-5,10
69,-24,-1,-2,-14,2,-7,-47
-31,-11,-7,-6,11,-12,-32,2
-1,8,0,-1,-4,18,36,1
11,-6,-4,-2,-3,-16,-4,-20
-3,21,4,0,-2,3,3,22
19,13,1,1,-4,7,46,111
-17,-28,-5,-3,2,-5,-5,-81
2,13,1,1,0,-17,-25,21
-21,-11,-4,-3,-4,-4,-4,43
-2,1,0,-3,-3,1,10,-2
-5,9,-1,0,-2,-1,4,26
5,-4,-3,-1,-3,0,-14,-22
-15,1,-2,-2,4,-6,-6,2
-1,-8,-4,-2,-4,2,-9,-32
9,5,2,0,-1,-2,-10,1
0,-9,-3,-5,2,-1,-9,-30
-4,4,-1,-1,0,8,-25,18
-14,-1,1,-1,-4,0,-33,-31
16,1,1,0,0,0,-5,15
0,-3,-1,1,0,4,9,5
-10,5,0,0,-3,-3,0,12
-2,-7,-1,-2,-1,-6,-35,-22
7,2,1,1,3,14,50,35
-15,-7,-4,0,0,-4,-26,73
20,10,-3,-2,4,18,33,-99
-29,-28,-1,1,-8,-30,-24,34
-4,6,-2,0,2,0,-3,58
26,24,6,0,2,14,85,66
-64,19,2,1,-1,-7,-56,51
11,32,2,5,4,20,57,103
-92,-50,-4,-3,-15,8,34,28
45,-23,0,8,15,-29,91,127
-66,28,30,9,14,28,10,-93
-103,-97,-55,-19,-3,-6,-65,45
-79,44,23,10,1,-7,53,127
50,-98,-61,-44,-34,-21,35,-128
55,102,31,15,-11,-41,-51,127
-94,-54,-44,-37,-34,-52,-89,-92
35,93,1,0,26,25,57,67
-62,125,7,-46,-3,62,15,4
-92,61,-4,47,-52,-35,4,-79
-35,-60,-22,-40,-9,-47,-97,-26
127,-36,-25,18,-42,-15,0,34
-81,86,19,54,22,-2,-75,-77
-4,28,-6,-15,14,10,127,127
2,106,51,30,18,44,10,25
-110,-98,-9,5,16,-36,-51,-128
102,-45,5,-3,-23,-10,-46,92
97,2,-8,-18,16,65,100,105
-68,109,38,51,46,59,-6,-65
14,-50,-39,-47,-13,-3,-49,92
-64,65,42,39,11,18,62,83
-59,-128,-28,-19,28,-46,-125,-28
-12,122,34,-1,14,118,127,121
17,-25,16,15,-12,12,-96,-92
-70,-35,-7,6,0,-78,-128,111
64,108,13,5,5,1,17,57
127,-118,-38,-25,-10,-51,-44,-128
-36,83,10,3,8,-11,-10,68
-6,37,0,-14,-4,26,52,127
-22,-10,-15,-2,-4,-13,15,-9
71,70,31,-51,-34,-16,-27,-51
-47,-33,-11,20,40,3,-50,48
-13,-54,-19,-17,1,4,12,-127
12,18,4,8,-23,5,-32,-63
-69,-34,0,3,-2,-26,29,18
-2,5,5,-16,-20,-21,18,-72
13,0,2,-4,-13,9,-101,-86
-20,-33,-13,-17,3,-15,11,-17
53,-9,0,23,-9,2,-10,52
10,18,1,-11,7,5,-25,-60
29,-8,5,17,3,-8,11,-22
18,-24,-5,-8,-13,0,-4,-27
27,-1,-12,0,-3,0,78,-14
-17,37,4,2,-14,-20,5,-9
-33,-16,-6,-14,4,-4,2,-41
-9,-14,-5,-2,1,9,-1,9
-29,7,0,14,-5,-19,-9,13
29,15,-1,-7,-7,0,-2,4
-7,-10,-1,0,-8,-1,33,-10
-15,-10,-6,-8,0,-8,-15,-18
33,8,3,15,6,-4,14,46
-4,-3,0,-7,-5,-3,7,-34
8,-4,-6,-7,-2,5,-12,-25
-26,8,0,0,-2,4,-9,4
2,-3,-4,1,-5,-11,-5,3
10,5,2,-2,-1,17,61,2
-22,1,3,3,7,19,-3,-12
20,-3,-2,-5,-3,-1,-4,23
10,-1,-1,5,3,1,17,20
8,4,-1,-4,-4,-20,-64,-14
1,3,-3,3,-2,11,18,1
-3,-10,-6,-6,-8,-6,-5,-7
24,1,-4,-2,0,13,-14,-7
-6,8,3,2,-1,4,-13,7
-8,-7,-7,-5,-1,-8,-9,-19
0,-4,-2,-1,0,2,-14,-6
-16,-2,-1,2,1,-7,-11,7
10,0,0,-1,-1,11,-10,13
8,1,7,3,-3,0,9,6
-11,-5,-18,-7,0,-6,-3,-4
-2,1,-6,2,-16,-7,1,6
-1,1,-1,0,14,0,12,5
1,0,1,4,5,-1,4,-9
-9,-4,-8,0,3,6,-6,1
-5,-2,9,-6,-5,-8,3,-5
4,-1,-3,-2,-3,5,1,-2
-5,-3,4,-4,-2,-5,-13,-6
-2,0,-3,0,-2,-3,-5,0
3,-4,-6,0,-1,-2,-4,5
-3,-2,2,-4,-7,6,18,-1
0,-1,-5,0,1,-2,10,0
-11,-7,1,-5,-15,-45,-16,-12
-12,3,-3,-1,4,13,52,53
16,-3,4,0,-2,-4,-19,-12
-5,-3,-7,-4,-4,-2,7,11
1,2,0,-1,-1,6,20,-15
0,1,4,2,4,-6,-5,7
-4,1,-6,0,-2,1,6,0
-15,-4,-5,-1,-2,-4,-3,0
54,14,13,-6,-11,1,-3,36
-27,-37,-15,8,14,-9,-38,-2
-3,4,0,0,-3,9,7,35
6,-6,-3,0,1,-7,-21,5
-17,17,6,-2,2,18,19,-9
34,18,9,-37,-38,1,22,25
-26,25,-12,25,13,-26,-59,-6
-38,6,-1,-2,6,0,16,-30
-26,-81,-17,-7,-11,3,-8,-102
-21,78,18,11,19,25,37,69
51,-111,-14,-26,-33,22,56,-55
70,-67,-4,7,-1,-56,-72,43
-15,94,41,17,17,32,106,127
21,-128,-32,-46,-84,-36,-13,-113
46,-51,-9,54,46,-17,-40,-5
49,87,24,-55,-5,105,108,98
64,64,32,-28,-72,-93,-89,-128
-53,92,17,76,102,48,109,127
-11,62,-1,-21,-28,40,117,-57
-21,-123,-44,-40,-20,-77,-128,-73
-82,60,15,21,-26,11,8,127
-10,65,7,-35,-38,12,88,-5
38,89,17,9,25,3,-38,3
-69,-16,-15,18,8,17,21,-127
-82,-24,-34,-20,-2,2,-72,-128
113,-52,-9,-10,-15,-43,-48,30
-26,-45,-36,-61,-23,-66,-99,76
87,127,8,-22,-15,-8,42,123
-31,60,1,-87,0,67,61,-81
-30,-39,-20,94,66,-51,-89,-128
15,-9,28,35,20,20,59,127
-18,-19,13,15,-39,-17,-11,-73
44,-71,-34,3,11,35,97,-11
-18,-17,23,-54,2,-9,-102,44
-27,13,11,-57,-50,-11,20,79
-25,-58,-11,78,18,3,-20,33
6,-3,2,27,9,-1,-44,49
-15,-6,5,97,-49,3,9,-59
-6,-30,-23,-74,55,2,-40,-37
-14,27,4,-67,-11,23,20,14
33,-44,-14,4,54,-2,-10,1
10,11,11,-12,-74,-34,-42,-29
-28,11,10,35,5,26,17,-8
7,18,11,1,16,6,24,-9
24,-11,7,11,0,-10,-27,16
-8,-14,-17,-61,14,10,2,14
-16,28,5,7,-30,-16,19,-30
-13,-7,2,10,-4,-2,-5,-21
18,-30,-6,7,24,0,-27,44
3,18,-8,-1,21,26,25,15
2,3,1,2,-13,-7,7,-34
4,-3,1,14,-4,-13,-12,9
-4,-11,12,9,-5,-20,-9,35
11,7,13,-11,29,27,21,-4
-1,20,-33,7,-11,0,-4,-22
-17,-25,-16,-77,-19,-12,-4,10
-3,2,-3,76,-4,-3,5,13
6,10,31,-21,19,6,9,-11
-1,-14,-25,17,-3,-12,-7,-7
3,19,25,12,6,18,10,11
5,2,-19,-22,-19,-17,-4,6
2,25,110,-1,-3,-1,-8,-2
-30,-41,-60,-62,-17,-12,-7,-11
1,5,36,56,-2,0,8,1
15,-5,-1,5,20,8,-2,6
3,1,-31,14,3,2,0,5
-8,14,62,-34,-18,-2,0,-10
-4,-4,-26,50,-7,-7,3,-4
4,-5,-47,9,10,0,-6,11
9,5,-9,18,23,10,9,8
-9,-8,-15,23,-25,-9,-8,-14
2,9,18,-3,9,-3,-2,2
-8,-18,-39,-43,-17,-7,-5,6
-7,2,17,-26,-18,-7,-6,-6
10,11,22,43,22,11,5,-2
10,24,87,6,15,5,5,8
7,-7,0,23,13,7,5,5
-24,-58,-90,-92,-31,-17,-13,-15
7,13,127,35,22,14,3,3
-17,-20,-82,-39,-24,-16,-7,-9
7,21,59,11,3,-3,-2,0
3,0,-51,14,3,2,2,2
5,-4,-65,-22,8,8,4,5
6,10,-10,17,16,8,10,6
-18,-11,62,-19,-25,-17,-12,-11
4,12,24,17,10,5,2,1
3,18,78,28,1,0,-1,-1
-11,-50,-68,-49,5,1,-2,-4
-3,2,77,-14,-13,-9,-5,0
0,2,3,15,5,1,1,-1
-2,-3,55,27,0,-1,-1,-4
2,4,14,-3,36,11,3,3
-10,-23,-68,-16,-7,-4,-4,-2
3,11,3,6,-10,-2,1,1
2,-1,-58,-17,-2,2,-1,-1
-6,5,55,34,3,-5,-3,-3
5,7,-40,-14,9,7,7,7
2,14,57,12,2,0,-2,0
-10,-17,-66,-53,-19,-11,-4,-5
9,16,90,27,-2,2,4,4
-14,-20,-71,-5,-6,-6,-8,-8
-6,-17,16,-1,-7,-7,-4,-5
1,7,21,-4,0,0,2,0
4,11,-1,-21,-6,4,1,-1
6,7,29,45,9,4,3,0
3,-8,-12,-8,4,0,3,2
-9,-1,7,-6,-3,-3,0,-3
7,-2,-44,2,-14,-2,-6,2
3,-1,29,-8,4,-5,-2,2
-10,-9,-23,-13,-5,0,-5,-10
-5,15,7,14,7,12,10,5
-6,-13,-14,-11,-12,-5,-2,0
14,12,1,-6,1,-4,-16,3
-6,5,20,4,-5,-7,7,0
-8,1,-11,7,2,-3,-18,-11
-19,-25,-31,-10,-6,-2,18,7
5,-4,19,10,-4,0,2,-5
9,1,-9,10,6,2,-3,2
-4,2,0,-9,-7,-2,0,7
11,-4,-48,-26,10,5,-4,-3
-4,0,43,18,9,1,3,-1
0,-1,6,4,-13,-7,-5,-1
10,-3,-11,-4,-5,-3,-2,-7
13,6,11,9,-8,-3,-7,-2
0,-3,-25,2,28,7,5,1
-5,1,-11,-9,-23,-7,-9,-3
0,-9,0,-9,14,-4,-2,-2
-6,10,13,-47,-28,-9,-3,-3
-7,10,19,40,-29,-7,-4,-2
-6,-9,-66,3,84,22,6,-1
-7,19,12,26,-3,0,2,-2
2,-59,10,-15,-15,-7,1,1
11,14,16,-62,-25,-7,3,-1
-36,-28,7,86,29,17,4,-3
-7,10,-39,-16,-29,-7,1,1
23,35,13,23,15,3,-2,3
-10,6,-13,-67,-10,-2,2,3
-38,-47,0,-65,-22,-8,-4,-13
6,-31,6,-70,-49,-14,-1,9
-10,20,-13,80,-9,-8,-8,-23
-6,38,-3,-87,-11,4,9,3
70,92,55,-12,-54,-3,21,68
-1,-63,-27,105,75,15,-14,-24
-22,11,-78,-3,12,-14,-30,-10
8,-2,26,-75,-100,-41,-11,23
-29,-34,-69,-88,-3,8,30,47
-30,32,61,74,13,0,-14,-3
-24,-37,-70,44,70,14,13,89
7,28,56,-13,-27,-23,-50,-93
-35,-57,-11,12,38,-1,-12,34
42,30,-43,40,49,16,-3,85
-61,-72,32,-102,-27,-8,-6,-92
23,98,-27,7,25,21,37,60
49,-13,76,-98,-62,-11,5,59
53,22,-59,38,9,-5,-66,-104
-86,-46,71,82,35,10,-26,24
-37,-50,-70,-67,-3,-9,10,23
30,64,8,-58,-73,-12,-10,-19
18,94,4,-100,-97,0,54,44
81,81,-59,-36,0,19,11,-1
-56,-93,-43,99,23,11,-8,-15
-55,58,66,-25,-100,-9,54,73
-114,50,-54,69,43,22,-8,-80
-35,-75,13,-128,-128,-42,-68,41
11,27,9,-4,0,12,-16,30
9,55,17,74,41,21,10,51
17,-8,-5,-108,-49,-21,1,105
70,-17,63,-60,-46,-6,19,-8
-62,-30,12,103,43,10,19,-37
-16,-94,46,-90,-35,-18,-50,13
-80,-67,-8,-88,-9,-7,1,-74
-2,85,57,-73,-88,-23,9,34
-50,8,-35,-36,17,14,-2,8
34,-12,-51,-6,53,15,13,-12
13,-2,75,-71,-51,-15,14,-10
-2,28,12,-97,-16,-5,0,63
45,26,49,-2,-24,-6,23,-39
-31,41,-58,6,31,-5,-52,-96
27,-66,13,-81,-1,4,9,109
11,39,-4,127,43,10,0,-35
79,97,76,-128,-64,22,111,127
-19,-31,-34,127,75,-11,-60,-121
-70,-95,-1,-91,-6,-23,-40,103
-11,-13,11,-128,-83,-29,14,95
12,-27,-28,93,125,33,-6,74
28,11,-17,-128,-82,-11,18,-6
-17,47,17,41,11,14,19,-31
10,19,-71,19,27,21,7,-38
-2,-26,70,81,-19,-11,-31,-54
-23,-13,-85,-45,3,-11,-9,-33
45,43,28,33,10,-3,1,-19
3,12,-25,37,35,9,12,-5
0,-34,-15,11,13,-10,-33,-47
11,21,19,19,-16,-1,5,8
12,-13,6,3,-9,2,9,5
5,3,9,24,15,6,11,-20
-22,-30,-29,-40,-17,-10,-16,-8
15,-22,10,-83,-65,-5,0,17
14,60,38,4,39,6,7,-3
-19,-18,-29,15,35,2,-5,-17
13,8,8,-36,-19,-12,-14,-1
3,-1,9,-19,-5,-2,4,19
16,-14,-6,-19,-19,0,1,-7
6,35,-11,10,-1,3,7,0
-5,-9,-16,-4,-9,1,-9,6
1,9,8,33,9,3,5,-1
-4,-11,-8,4,-8,-9,1,0
-1,7,59,31,25,8,2,2
3,-14,0,-14,-17,-6,-6,-3
-10,-6,-53,-44,-8,-5,-5,0
13,12,61,-34,6,0,-4,2
-7,-30,-3,76,22,-2,-3,-1
-4,-7,-68,-9,-13,-5,-11,-8
7,10,28,24,11,5,2,8
4,-7,-58,-1,-11,3,1,0
2,-3,68,-38,-9,-5,-4,-5
-9,-11,-41,-26,-15,-6,-7,-5
1,2,12,49,26,-1,0,4
8,-4,-27,3,-8,-2,4,1
2,-12,-55,-8,8,11,4,-3
-1,0,25,-32,-5,-7,-7,-3
-3,3,-1,86,60,18,4,2
0,-10,-6,-61,-1,2,0,-3
1,6,34,-35,-10,-5,1,-2
1,-5,-24,-27,6,2,-1,2
0,1,-30,-27,-15,-5,-1,-2
-14,5,57,-83,-67,-25,-6,-8
4,10,5,100,103,30,9,8
1,-3,-32,2,-21,2,-1,3
-7,0,4,5,-10,-5,-3,-2
0,-11,-19,19,-5,-3,-1,-3
4,12,-2,-56,-36,-12,-4,0
-2,3,-13,-77,-34,-12,-6,-7
-5,6,20,104,50,19,13,3
12,-14,-4,-8,8,-3,-13,-1
-2,3,-56,-41,-18,-2,-1,-4
-3,-4,68,66,6,0,-2,-3
-20,7,9,-90,-26,-9,-4,-1
41,35,-4,21,-34,21,60,112
-81,-73,-55,8,-10,-31,-65,-100
10,-21,2,-102,-31,-13,-27,92
-9,32,16,-79,-25,-1,5,70
31,-16,-6,-88,-46,-2,7,95
-38,11,22,-116,-66,-4,54,18
-22,12,11,-90,-36,-3,-11,-43
21,51,-12,47,24,10,2,-101
-5,-4,-22,-100,3,0,-19,80
121,-53,-46,105,85,22,9,-28
-57,-33,-24,115,125,18,11,16
46,65,77,-83,-43,-18,1,31
-93,111,27,-37,-74,-4,36,55
42,-68,-15,72,83,57,44,-65
41,119,-25,-121,-92,-19,-79,-4
58,-128,-83,63,-7,24,93,69
-105,-13,-8,12,17,-44,-71,-128
68,83,37,-128,-128,-41,26,93
-26,-103,-36,66,-38,-19,-77,26
14,127,100,-128,-66,-1,62,111
-14,-62,-92,122,122,56,-30,-88
-31,99,92,12,-4,10,9,127
40,40,101,-99,-41,-11,32,35
-31,-35,-85,73,56,-1,-43,-24
90,83,26,-101,9,13,53,9
-128,-99,-64,-128,-66,-39,-52,-105
33,67,56,126,97,87,73,49
-26,62,82,-124,-103,-47,-89,-119
54,14,-9,-50,-27,1,21,69
34,-63,-60,-114,-24,-12,-18,51
-78,-77,-24,-43,31,-5,-44,-63
34,17,-7,-72,-17,-5,2,127
-73,23,0,-24,9,27,51,67
59,-40,25,2,-55,-36,-82,-37
40,0,-43,-32,-11,-10,51,127
-51,-31,36,-15,4,-15,-20,-50
-35,-54,27,51,51,-2,-39,53
62,95,28,3,-35,18,65,127
5,-87,-59,110,96,12,5,-126
-22,83,-79,-48,12,1,-37,17
38,54,37,-62,-82,-30,-1,-22
-45,108,74,-95,-68,-14,8,-8
46,15,-56,-118,-45,-1,12,-1
-5,-56,12,-81,-3,6,6,-9
-7,-83,-3,-10,-21,-12,-15,-77
-6,-7,-67,6,11,1,-20,-9
-28,2,21,-44,-34,-13,7,-9
-21,-52,-39,-1,-8,-3,0,-36
-11,-3,31,38,7,-2,-10,-40
-18,-8,35,13,46,19,3,-3
2,31,22,-21,-35,-9,14,-4
-19,-32,-67,72,26,0,-5,-9
46,10,12,25,-17,-5,-12,-5
-26,11,23,-43,-8,-11,-4,7
-18,-13,-72,-82,-13,-7,6,-4
18,8,46,-10,-12,1,-7,14
-4,-18,-6,16,-4,-1,-4,-5
-22,-8,-79,-1,5,0,2,-6
-10,23,25,14,-3,-3,7,2
-5,-17,0,-63,-6,-8,-7,-5
3,-13,-18,94,45,11,1,-10
-13,10,33,70,63,16,4,3
15,22,5,-15,-8,1,-1,9
4,-22,-7,27,1,3,1,10
-12,-18,5,-63,-28,-21,-11,-16
2,14,89,11,-8,-7,-9,4
-4,10,39,21,4,3,6,5
-2,-9,-1,9,13,9,3,-3
0,3,-16,-61,-7,-1,-5,-4
-4,-8,-8,87,25,7,1,1
-3,25,34,-23,-15,-10,-2,-2
-8,-8,91,-78,-28,-14,-7,-5
14,-19,-35,90,67,16,3,3
-5,19,42,22,7,5,1,3
-5,-16,-62,-38,-23,-5,-3,-3
-2,12,37,-24,-4,-5,-22,0
-1,-12,-22,-1,-21,-7,-22,-4
-6,-3,15,-44,-6,-4,-12,-4
-2,2,-28,40,-6,-3,4,-2
3,-1,-52,-22,3,7,16,3
0,0,7,-12,-25,-3,8,-3
-4,-3,-52,-30,3,1,4,0
4,14,62,-11,-7,-3,3,1
8,2,-32,1,1,2,8,6
-7,-7,-8,95,33,6,0,-7
-7,-1,-53,-66,-18,-9,-5,-6
-10,13,39,-39,-42,-19,-10,-6
24,3,41,67,64,22,9,10
2,8,-35,-103,-25,-3,0,-2
-3,11,6,-49,-38,-2,1,-1
-14,-15,-25,-43,4,-3,-3,-7
2,-2,12,87,-7,2,0,1
4,5,-4,-44,-15,-5,-1,1
1,-14,5,-13,5,1,2,1
-27,3,39,32,22,4,0,-1
7,-2,20,-27,-40,-10,-3,-6
-9,9,-23,-1,-20,0,4,5
-15,-12,64,-1,-23,-10,-5,-6
-4,3,111,42,15,2,-1,0
3,-24,-112,-29,-8,-7,-5,-7
8,1,41,-26,-32,-14,-3,-1
7,12,30,-10,10,3,7,3
16,-1,-68,-114,-76,-8,1,2
-10,-6,46,-7,2,11,0,-4
1,-30,39,-70,-31,-6,-5,-4
-7,-14,-76,-31,-1,-4,-6,-4
9,2,-7,-5,7,-5,3,3
-15,29,35,-15,1,-2,0,2
19,-17,83,108,65,15,7,0
4,-34,8,-12,-14,-13,-3,-5
-18,-2,41,29,20,8,-2,-1
-26,-29,-63,60,13,-2,-3,-11
8,17,12,-16,-5,1,-6,-3
6,9,-87,-15,3,6,5,5
16,2,-2,-98,-13,-5,-2,-1
10,9,104,-10,-19,2,6,7
-22,-6,-128,2,42,-4,-5,-10
-20,10,35,79,34,13,0,-4
45,3,-44,-11,-7,-2,1,11
-8,-6,-35,-117,-34,-10,-4,-2
-22,5,71,1,-42,-20,-10,-12
-9,5,-17,48,62,20,10,14
68,5,-9,127,88,18,-3,17
-14,-1,62,-21,-4,-8,-12,-12
9,4,-11,-128,-40,-9,-2,-1
1,4,5,57,37,26,23,44
-28,-9,27,76,-3,4,-1,47
40,-16,-23,-46,-9,-8,-30,-72
-45,-11,-45,9,-44,-11,-6,22
-34,12,56,38,24,8,10,15
-38,33,47,-63,6,8,29,50
8,-52,-26,-44,-5,1,9,-3
24,-23,25,-21,-67,-23,-43,-34
-73,0,-19,-128,-64,-16,-32,-119
84,54,13,10,-9,8,24,101
-86,95,-27,22,7,14,36,112
94,-108,-5,-112,-39,-14,-15,-65
79,16,55,-23,-29,2,-38,-69
-49,10,80,57,35,2,-17,-48
9,38,46,-81,-60,-21,2,20
-7,54,-27,27,20,17,41,67
26,11,-44,4,-12,-11,-1,24
14,9,70,-9,3,4,-1,-47
-10,-76,-14,65,25,13,-9,6
-32,-11,84,-6,-14,-30,-13,-27
-44,59,-120,-9,8,-1,-70,-51
31,-91,3,-37,-25,0,86,58
-15,9,124,39,20,9,9,-12
-9,14,7,26,29,13,4,-6
27,29,69,-26,-35,-20,-7,9
67,-8,-70,-33,-11,-4,-27,-20
-78,5,-64,-6,-4,-11,-18,-17
12,-82,22,59,44,13,4,9
11,-25,-9,-18,17,4,21,49
-19,-22,-128,-63,-62,-19,-29,-47
49,36,-122,115,59,18,15,-2
-49,9,-128,-98,-49,-19,-16,-3
47,45,83,-24,-28,-9,15,32
11,-5,86,-65,-10,4,-1,-30
1,-44,88,8,-2,2,-8,-8
-10,10,107,45,-8,-13,-5,-2
22,4,25,-6,0,-1,27,28
-23,26,74,-58,-6,-1,-19,-14
-6,-6,-71,85,74,21,13,11
37,43,20,-3,23,20,8,21
-50,-39,97,-28,-8,-9,8,3
-42,21,109,25,-11,-10,-15,-4
27,-1,27,7,-9,-5,-6,1
-16,-8,-98,13,16,7,4,-4
-24,-19,-116,-13,-27,-9,0,3
-28,-21,-128,8,12,-4,-12,-10
30,-9,-60,-73,-34,-14,-5,-7
-5,50,-17,-19,-15,8,7,8
22,-20,0,25,25,10,6,9
-13,-17,-33,-17,-10,-4,-2,-11
11,25,71,32,-13,-9,-7,-8
1,14,-61,-47,-3,-3,4,5
-7,-41,-31,7,-13,-11,-4,4
-21,-12,-35,7,11,-3,-10,-15
-3,0,6,-34,-25,-11,-5,-3
12,27,22,27,24,16,7,13
6,-9,16,3,6,3,5,3
-25,-13,-16,34,8,-4,-7,-15
24,15,75,-54,-17,-3,-5,2
3,-17,-35,127,59,21,16,9
-6,-14,39,-42,-12,-12,-5,-4
-8,13,107,-21,-11,-8,-6,-7
2,-20,104,-85,-55,-17,-5,-6
4,-1,115,-61,6,8,0,4
28,7,31,38,-12,-6,-3,-2
-74,-22,79,11,5,3,-1,2
5,4,19,-37,-2,-3,-6,-4
-11,-12,30,8,-33,-14,-5,-6
1,-18,57,-2,24,8,7,4
13,4,-92,11,-11,-2,-4,-5
0,-17,-60,16,-11,-6,-3,-2
-6,11,-11,6,33,8,4,7
-13,-26,-60,3,9,5,1,2
4,-17,-102,-24,9,1,-4,-6
-5,-17,-57,9,-8,-3,2,-1
4,9,-54,14,1,-2,-4,-2
8,10,-58,60,9,5,4,6
10,-5,-62,-55,-6,0,-1,-2
-15,-59,-117,-21,-4,-6,-7,-9
-46,8,24,-32,-15,-6,-4,-11
106,41,-2,89,15,15,5,8
-51,6,-46,87,32,7,3,8
-17,-24,-54,-66,-12,-11,-7,-11
3,25,26,-5,-8,-5,-4,-3
-16,-7,-24,-20,11,0,0,-2
34,17,-9,-2,1,5,3,7
21,35,25,5,17,11,2,7
-14,-24,21,11,-23,-19,-11,-11
-31,43,59,-57,0,9,-7,-2
-5,-51,-74,21,-31,-20,-1,-12
-4,19,21,40,28,11,8,6
19,6,101,-54,-18,-1,1,1
-33,-27,-25,-41,-27,-16,-8,-9
30,19,66,-100,-24,-5,-5,-5
-11,18,-10,68,82,31,11,15
-37,-17,-80,-34,-29,-20,-14,-13
24,0,-50,-66,-22,-5,1,2
11,-9,25,-44,0,-3,-4,0
2,34,-15,-67,-43,-7,-1,-4
35,52,8,75,62,19,8,10
-43,-28,16,-22,5,-5,-2,-4
45,-5,-44,11,7,-4,-9,-11
-28,6,57,-41,-22,-9,-2,-4
12,-12,-24,-14,0,1,-5,2
9,26,20,-67,-12,3,17,11
26,36,113,2,12,7,2,8
-24,-47,-59,-14,-13,-19,-7,-10
2,3,9,-54,-13,1,-5,-3
7,17,15,117,37,24,7,7
-17,-23,79,70,9,3,-1,7
18,58,2,-73,-36,-10,-11,-21
54,2,-64,78,53,7,11,19
12,-87,-92,57,54,45,30,79
-80,-35,-13,-83,-50,-22,-37,-75
-76,-32,-2,-69,-51,-13,-17,-79
-40,28,-36,33,20,43,72,91
-128,-6,49,-42,-13,-44,-83,-125
-11,25,65,-47,-5,-6,-23,100
-5,38,-76,-31,25,17,6,80
-29,-13,-41,-128,-96,-27,-2,26
43,7,94,13,-15,-7,28,66
-6,-16,-7,71,28,13,13,-25
12,-1,36,-60,-34,-18,-12,-39
31,14,94,41,1,6,3,-4
27,35,92,-25,1,2,-8,-25
-14,-24,-52,-35,-23,-15,-2,-34
68,-39,79,61,0,3,8,16
61,-1,-22,9,19,-6,-19,-57
9,-39,-6,-24,-32,-19,-9,-3
4,25,1,-34,1,11,21,17
21,2,-38,30,16,4,7,26
1,-24,17,67,71,2,-19,-26
-61,92,-32,-4,-18,8,28,23
18,-60,34,-55,12,13,40,115
-29,10,28,43,30,-14,-60,-63
-19,23,13,51,-17,-14,-28,94
-37,39,12,-4,-13,1,1,47
-34,-25,-51,124,76,31,31,36
-51,40,72,-35,-46,-10,13,-2
-50,-52,-2,-29,11,-4,-12,-50
20,-64,-61,-76,-41,-24,-9,-25
36,58,33,6,-22,-2,0,-43
10,-36,16,-43,-8,-1,4,0
11,72,43,48,-2,17,7,-15
48,-31,-35,-111,-27,-12,-2,0
-20,-12,26,-5,-6,-10,-29,-41
-31,13,16,15,13,3,8,16
-6,-32,7,-74,-8,-1,17,27
-34,-45,-32,100,44,7,-3,-24
-87,24,-29,-23,-13,-4,-13,-57
115,57,-21,115,3,14,53,127
-70,-91,2,24,-5,-4,-34,-102
18,42,17,-128,-86,-18,-18,-3
-48,111,33,-60,-26,-14,-48,-45
18,-98,-87,-27,-44,-2,9,37
-5,13,0,-56,-43,-17,-1,30
-3,-29,-35,-9,19,4,19,40
45,91,20,51,-5,1,17,16
-37,-48,-10,-52,3,5,-14,-31
-1,44,81,12,-18,5,7,10
-36,-81,-61,63,54,2,-15,-48
67,109,23,-128,-55,-4,12,17
-2,-104,4,-38,-42,2,6,-3
-21,-69,-4,51,8,-18,-11,-24
37,98,51,0,8,6,3,0
-1,-46,-25,21,16,5,5,18
-4,12,63,-17,5,0,0,-13
3,-22,82,-55,-13,4,-3,-11
11,5,108,-42,-29,-10,-1,7
-16,-35,-1,76,2,3,9,20
-7,39,-76,23,32,2,-9,-20
-12,7,-118,-57,-35,-15,1,-1
-2,24,-72,-91,-51,-13,-7,-6
16,-44,-76,10,78,45,10,6
-16,-20,-104,25,5,1,-4,-14
-11,-5,-76,-103,-50,-17,-10,-4
9,20,53,-17,-23,-2,4,6
12,-51,12,-8,-6,-14,-4,-5
-2,27,16,8,11,-5,0,-1
38,52,57,-12,40,25,15,17
-45,-77,-80,-10,-7,-15,-14,-22
-2,-11,17,3,-12,-7,-8,-4
3,23,54,25,31,4,-5,-3
11,14,39,-21,-14,-3,3,2
11,4,24,27,17,10,1,3
-3,-16,37,-33,-35,-2,2,2
-14,-2,21,-128,-55,-23,-13,-12
-3,-26,96,-49,-30,-11,-6,-6
0,11,90,37,19,6,3,2
1,-27,87,15,1,-8,-2,-2
10,35,86,-17,-1,4,0,-2
-2,5,-21,46,-1,-3,0,0
-9,-40,-40,-16,-7,-5,-3,-5
6,-13,-88,-50,-29,-5,1,-1
-6,14,-19,64,22,6,1,-5
0,8,-35,-59,-15,-4,-1,-1
-1,-2,-26,-47,-14,-10,-4,1
4,-10,-4,21,2,-1,-2,-2
0,-7,-52,42,27,13,3,3
-5,1,-100,-79,-18,-3,-5,-4
14,24,-22,88,34,16,9,7
-15,-35,35,-19,-25,-14,-7,-9
6,33,34,-76,-11,-5,0,-2
-31,-76,-58,-56,-29,-22,-15,-17
11,8,74,5,-4,6,2,5
6,9,-67,77,16,13,5,6
-35,-55,42,-14,3,-24,-19,-20
21,56,64,-10,1,6,8,12
17,14,54,71,42,22,10,13
-38,-46,-47,-99,-2,-24,-20,-21
3,-13,-43,13,-5,0,0,2
17,25,12,-11,-21,14,13,13
-33,-46,106,8,15,-15,-14,-16
41,74,108,55,13,14,15,18
0,13,-87,-47,-63,-13,-5,-2
-3,41,109,117,8,2,-1,-5
29,35,30,-92,-15,3,3,10
-35,-73,-91,-69,-1,-13,-9,-12
-3,-17,22,84,61,9,-1,-4
11,-15,55,-87,-24,-2,1,4
6,14,30,-86,-87,-14,-3,-1
-7,4,-96,73,90,20,2,-3
15,13,24,-37,-5,0,7,9
11,-13,2,-66,-26,-9,-3,7
-38,-39,-128,111,102,40,2,-12
-6,22,11,-128,-128,-36,-17,-11
27,51,48,-90,-61,6,7,13
-1,-22,-35,121,105,40,7,1
-24,-14,-51,11,-84,-30,-14,-18
8,17,71,-30,-42,0,3,8
13,25,42,-73,-29,-1,-1,3
-8,-32,-39,17,77,6,-4,-8
15,41,24,-87,-21,-1,5,6
0,25,89,66,50,15,4,0
5,12,3,-120,-86,-26,-8,-2
4,-9,9,94,48,10,2,4
-7,-5,-11,26,8,-5,-3,-3
13,12,10,-2,-18,-11,-4,2
-3,18,-9,119,97,31,8,4
-21,-57,-91,-25,-55,-19,-6,-10
20,20,31,-83,3,15,9,12
-39,-66,7,-64,46,-2,-13,-17
-1,-4,79,-2,-48,-3,1,1
-11,8,65,1,-53,-15,-8,-8
26,51,-12,-30,-14,4,8,12
-9,-45,21,-88,-73,-33,-13,-10
-15,-13,18,39,49,10,-1,-6
2,33,25,7,6,1,1,1
9,28,33,-11,12,2,3,5
8,10,-3,40,-1,3,2,5
-23,-40,-55,14,23,-7,-7,-9
7,22,16,-57,-42,-11,-1,2
-15,-41,-27,-37,-44,-21,-8,-10
16,9,-59,103,83,44,18,13
-38,-54,1,-12,8,-30,-21,-28
-12,-12,17,4,19,-4,-6,-7
-10,-10,11,11,1,-10,-6,-6
7,6,17,-33,-17,-2,1,2
23,23,20,-5,-4,17,8,11
-2,3,-13,-8,-9,-7,-4,-3
-22,-33,-30,3,11,-11,-8,-9
14,27,28,1,-29,5,4,5
1,-9,-21,21,21,1,0,0
-10,-4,-17,-31,-21,-7,-3,-5
10,3,36,10,6,10,4,7
7,12,-34,-96,-52,-6,0,1
-5,-2,33,49,9,0,-2,-1
1,-4,-5,-5,4,1,1,0
-1,1,0,-4,5,0,-3,-2
9,18,86,87,25,6,6,6
-34,-29,43,-4,-50,-33,-20,-22
7,18,46,-3,0,6,0,3
0,-14,-16,6,-4,-1,-2,-4
-6,-1,4,15,1,-6,-5,-5
16,12,-8,-23,-4,9,7,6
0,0,-10,-6,-11,-4,-1,-1
-8,-4,9,-9,-4,-7,-5,-7
-7,-14,-23,-26,-10,-7,-4,-6
8,5,1,-7,6,9,6,6
-4,-2,-18,-21,-6,0,-3,-1
-3,-6,-7,2,2,-1,-2,-2
-3,-2,-7,-9,-8,-12,-7,-6
4,1,-21,8,6,5,3,2
0,2,4,6,8,5,3,0
4,2,7,13,1,1,1,4
-7,-14,-64,-29,-25,-7,-4,-6
1,-1,14,5,7,3,-1,3
2,-1,-23,-11,-3,1,-2,-1
-1,9,48,-69,-13,-4,-2,-1
-4,-12,-21,96,11,-1,-3,0
-4,1,-2,-19,0,-4,-1,-3
5,12,83,22,-5,-1,1,1
-8,-18,-82,23,7,-3,-1,-6
4,14,48,17,12,2,0,1
2,-1,0,-12,-18,1,-1,2
-2,-3,-7,9,15,-5,-3,0
16,36,66,40,-10,14,12,9
-38,-53,-20,60,-3,-16,-15,-21
7,8,34,56,7,3,3,3
16,19,62,74,10,15,6,8
-10,-19,-57,-62,-17,-14,-6,-5
-8,-3,66,-68,7,-13,-6,-5
5,23,-6,37,4,4,3,1
-5,-17,-46,-60,-38,-20,-7,-6
-23,-10,-104,-46,-31,-8,-7,-13
10,46,61,69,-29,-10,-1,4
7,32,-110,75,105,52,11,7
-33,-36,-53,46,-34,-28,-18,-22
21,37,127,34,-10,-1,1,7
12,-23,-5,10,64,37,14,12
12,57,84,57,7,-14,-1,2
36,82,-101,63,-1,18,11,14
-72,-112,-51,127,100,-13,-25,-36
51,76,111,-66,-14,24,26,26
-28,-43,34,-67,-30,-32,-14,-13
2,-45,70,-13,48,14,5,5
52,96,127,-120,-54,8,11,23
-68,-49,-83,-3,-11,-29,-20,-31
4,-14,96,-6,-3,11,4,2
4,-27,51,-77,-36,0,0,5
-14,-11,-103,-60,-86,-49,-16,-11
6,-56,-31,30,-48,4,0,-1
1,16,55,-36,-42,1,5,0
-40,37,60,105,83,-25,-20,-22
39,30,5,60,44,28,17,21
28,45,56,44,-33,-3,3,13
-56,-61,-111,99,55,-8,-17,-27
6,-25,82,-128,-16,5,4,5
37,-35,73,-56,-5,29,16,18
-50,-54,28,-79,-33,-52,-30,-33
14,-8,-84,-128,-42,5,6,6
34,51,21,-98,-43,14,14,19
-53,-65,5,95,107,12,-14,-24
12,21,-22,-40,37,15,4,4
27,76,114,-2,-40,2,8,12
-13,-8,-13,-62,-8,-9,-10,-11
-10,-2,-59,31,-22,2,4,-2
13,20,12,-99,-31,11,8,11
-8,-30,1,-89,-48,-14,-5,-3
19,53,10,-56,16,15,3,2
0,63,51,47,37,14,3,2
-16,-9,-52,-36,-37,-15,-12,-12
6,-20,-16,-4,17,8,2,3
19,-71,-17,-108,-128,-21,1,9
-49,-59,-34,59,57,-22,-19,-24
8,-21,43,-35,34,16,6,3
11,-7,7,-65,-16,-4,-1,4
14,43,40,18,-12,-2,2,5
-15,-41,30,9,-50,-19,-12,-10
4,20,-85,-24,-5,4,1,4
4,-12,-31,34,-1,-5,-3,1
-22,-6,-27,52,23,-1,-5,-10
23,29,26,-37,-7,16,11,13
-12,16,-12,39,-38,-20,-9,-9
-7,-8,-37,-59,-32,-8,-5,-6
-1,5,-44,61,36,20,11,6
-51,-65,-104,-95,-83,-48,-28,-33
6,6,64,17,-40,-17,-4,-1
10,4,13,41,26,10,3,5
-10,-22,-35,20,13,-2,-1,-3
13,18,43,-39,-26,6,7,8
3,16,29,-6,30,10,4,0
-17,-17,-30,-55,-18,-10,-6,-11
-3,-17,-15,7,9,2,2,-1
16,30,11,-17,-14,1,5,6
-2,-7,-41,-10,8,-3,-2,-1
6,12,41,28,11,-3,0,2
-11,6,-14,-22,7,0,-4,-7
15,25,11,56,-4,8,7,10
-3,-11,-1,46,65,16,3,-1
-9,-6,-69,67,-9,-10,-7,-7
3,18,91,39,3,-2,-3,-3
1,5,95,74,20,-1,-2,1
13,15,43,-11,-10,9,6,5
0,-5,26,40,7,2,1,0
-7,-3,-18,20,-10,-4,-5,-6
15,15,0,-15,7,9,4,5
0,1,-14,-23,-6,-1,-2,0
-5,0,13,-35,0,-1,-2,-2
-12,-15,-30,-8,-6,-9,-3,-4
6,7,-13,-70,-14,0,1,1
-4,-4,-19,-4,5,-1,0,-2
1,-6,-2,-30,-14,-4,-3,-2
-3,-7,-14,3,9,1,-1,-3
2,3,-34,-47,-1,0,1,2
-3,9,58,25,-6,-2,-3,-1
7,11,88,25,21,8,3,4
5,18,20,66,2,1,3,3
-25,-58,-74,-45,-15,-20,-11,-14
-1,-24,55,-11,0,-3,-1,-4
5,16,77,85,24,9,4,1
0,-3,-16,14,-7,3,-2,1
0,11,-7,-35,-24,-5,-3,-1
2,-3,-31,9,6,-5,0,1
-3,-7,17,51,0,4,1,1
-12,-25,-92,-69,7,-3,-6,-8
6,7,-24,-16,-9,2,0,2
-1,-1,-3,-9,-7,-3,-3,-2
0,5,-15,-54,-4,-4,-2,-2
2,3,0,55,13,8,3,3
0,11,18,35,-45,-13,-2,-2
-7,-22,-26,-96,-18,-9,-5,-4
12,51,30,29,-5,1,0,4
-19,38,59,-1,-34,-10,-7,-9
-10,-61,-31,-63,47,5,-1,-6
-1,25,-61,-19,-78,-22,-10,-5
21,-24,63,24,87,29,12,14
-23,-31,-22,-63,-34,-26,-18,-18
25,30,65,-40,5,18,12,16
30,77,64,-73,-14,20,12,12
-34,-52,29,-14,6,-23,-13,-18
28,77,98,26,-1,6,10,13
-14,-24,-24,18,-54,-17,-11,-12
29,29,95,127,109,29,13,16
21,29,-17,0,-43,12,7,6
-43,-58,-70,-21,-2,-32,-19,-24
40,127,-15,-47,-36,18,15,18
-76,-89,-45,-31,-59,-54,-34,-41
-26,-47,29,111,99,15,-3,-9
57,67,123,-89,-78,-11,7,23
-46,-85,-99,91,92,21,-7,-21
-17,20,-64,104,94,30,3,-5
11,38,-9,-88,-124,-9,5,6
-29,-93,14,107,55,1,-11,-15
30,28,92,-40,-4,-3,3,10
24,-7,10,-102,-79,-23,-5,5
21,1,9,44,60,70,14,9
-31,-46,-66,-52,-36,-13,-10,-16
-4,-13,92,-61,-61,-15,-4,0
19,-20,114,-5,10,19,13,11
-2,-42,-96,-51,-99,-34,-9,-2
4,-20,47,-111,-33,4,4,4
-9,41,53,-17,-18,-3,-6,-2
27,22,40,12,-55,14,21,21
-55,-71,-87,-128,-73,-53,-25,-32
6,34,77,38,25,21,11,8
2,-13,73,73,37,6,3,3
19,16,28,-91,-78,-19,-2,7
-30,-10,-25,98,50,3,-6,-13
-13,3,73,-22,-16,4,-1,-5
12,-10,9,-110,-61,-18,-2,3
16,31,19,-78,-26,13,5,7
-13,-2,45,95,84,15,-1,-5
-5,0,-27,-12,5,-2,-3,-6
12,12,34,17,-7,12,7,8
3,8,45,-27,8,0,-3,1
20,88,16,-128,-113,-16,3,7
-5,3,-59,16,-10,-5,-2,-2
-4,11,-29,-66,-1,-5,-5,-4
-18,-36,-67,36,31,-1,-4,-9
8,-13,-28,-128,-98,-30,-4,1
0,-24,-65,19,30,11,0,-3
-21,-63,-74,67,12,0,-3,-9
-21,-13,32,51,11,-12,-13,-11
11,-2,25,15,7,-1,-2,4
15,10,14,23,8,7,6,9
4,23,15,-11,1,0,-1,-1
-12,21,69,54,12,2,1,-4
0,2,127,117,39,1,-2,0
7,-12,-6,-40,9,8,3,4
-1,8,0,6,-15,-11,-6,-2
-6,-15,-59,8,-4,4,-1,-3
-2,5,-31,-14,-9,-8,-3,-2
-3,6,-2,-1,-7,-15,-7,-4
3,3,45,72,27,15,4,1
-9,-6,3,24,22,7,3,-4
-2,2,10,5,-1,2,-1,-1
10,2,-8,4,-13,0,3,4
5,2,0,29,-5,0,3,2
-23,8,-38,-35,-19,-20,-11,-12
6,7,-6,-23,-3,-3,0,2
2,4,-8,16,6,5,1,3
-2,6,5,0,3,0,-2,-2
-1,-5,-9,-5,2,-2,-3,-2
1,-6,-7,-30,-8,-7,-1,0
1,5,11,-10,-7,-1,-1,0
-1,5,48,8,5,3,0,0
7,6,3,51,55,11,2,2
-15,-38,-73,-28,-24,-14,-6,-4
7,-5,-6,9,-3,3,4,3
-10,-18,-34,-32,-43,-12,-6,-7
-4,7,-23,-78,-8,-5,-6,-4
7,26,28,44,11,6,-1,0
-1,5,8,32,17,2,1,-1
0,-5,-27,-8,-16,-4,-1,-1
-2,-20,-28,-19,-21,-4,-1,-1
0,-1,-3,-4,5,-1,-2,-1
-3,6,-4,-36,-16,-4,-3,-3
-1,13,15,7,9,0,-2,-3
1,-8,45,22,-8,0,0,0
4,1,-14,-15,5,-3,0,0
-1,-4,-8,23,5,6,2,-1
-4,-4,4,3,9,1,0,-2
1,3,-47,-60,-12,-2,-1,-2
2,4,91,-62,-40,-7,-3,-1
-6,-5,17,64,20,-3,-6,-5
-1,-5,-15,81,11,-1,-1,-1
-5,-22,-50,-23,-23,-6,-4,-3
11,9,11,4,23,9,6,6
-6,1,-37,-1,9,1,-6,-3
0,-2,33,36,-5,3,1,2
4,12,51,101,11,4,2,1
-1,3,9,99,43,6,-2,0
-2,-2,-10,18,-8,0,0,-2
-3,-1,15,-24,-3,-2,0,-1
2,0,41,-8,-4,1,0,0
-2,-15,7,66,15,10,5,3
0,8,5,-90,-33,-13,-5,-5
1,0,40,45,17,4,0,2
-11,-20,-28,51,-20,-11,-6,-7
-4,-20,-6,-67,21,0,2,-3
-1,7,64,103,59,20,3,2
26,7,96,-33,-13,15,15,15
-21,-36,22,-7,-63,-10,-5,-9
-21,29,78,8,-61,-29,-18,-15
-17,-32,-99,-54,-55,-23,-14,-16
1,29,34,-108,-53,-17,-4,-3
2,-39,-65,89,51,19,8,6
4,10,73,-29,-39,-4,1,3
-4,62,93,-98,-11,-12,-3,0
20,93,105,-1,-6,1,1,6
-31,-101,-102,-128,-94,-34,-18,-17
-5,-5,32,41,62,-2,-2,-3
15,5,58,23,27,17,10,9
-5,-47,30,-29,28,-4,-6,-5
12,72,49,-79,-57,1,4,3
-9,-52,-39,77,95,27,1,-4
1,0,20,-107,-52,-5,2,1
7,-5,13,55,-64,-28,-10,-6
-8,-29,21,57,117,39,7,-3
-1,27,-2,-124,-112,-21,-6,0
-10,-46,-101,127,71,29,6,-3
-39,-1,-8,-54,-45,-10,-9,-15
37,118,119,-31,-24,3,8,18
-15,32,17,-73,-18,-5,-4,-8
44,-1,74,-102,-82,6,10,20
-37,-43,6,46,-10,-26,-19,-21
-14,1,-45,12,25,-5,-7,-6
13,7,-76,-8,1,11,11,7
26,45,72,-55,-23,-6,2,13
-47,-55,-128,-85,-38,-12,-12,-23
-32,-22,123,27,27,-26,-17,-18
22,-24,-28,-81,-46,-4,2,9
13,-18,73,15,4,11,5,6
-45,-47,-85,69,126,0,-15,-22
19,2,30,-62,7,10,5,7
2,13,-49,-57,-23,-1,-2,-2
-6,6,-60,-34,4,-6,-2,-5
30,37,33,-30,-32,10,9,9
-1,4,-11,14,4,-2,-4,-4
-10,-31,36,92,91,13,1,-5
22,90,36,-85,-41,4,8,10
-24,-57,-108,-89,15,-26,-17,-16
6,8,18,48,-6,0,2,3
10,17,63,-17,-30,-1,4,5
-14,-14,8,21,22,1,-4,-7
29,29,-28,19,15,24,14,16
3,1,-7,-4,-5,-3,2,1
-7,-33,-66,-13,8,-1,-5,0
-16,-27,-57,12,-2,-11,-3,-7
17,22,32,7,10,13,3,8
-11,-43,-102,7,1,-2,-1,-2
2,24,24,19,-26,-4,-3,-2
-23,-38,-47,-15,2,-12,-11,-12
26,15,49,-45,-2,12,9,14
-6,6,57,42,1,-10,-6,-6
4,7,-21,-44,-5,-5,-2,-2
-3,30,62,47,3,7,3,0
-22,-35,88,52,-1,-10,-9,-14
16,30,74,-34,-11,6,5,9
-5,-2,-6,20,12,-1,-2,-3
-10,-25,-18,-12,-5,-11,-7,-6
16,19,-25,-24,-7,6,8,9
-2,3,-33,9,-2,-1,-1,-3
-7,-4,11,-11,-30,-2,-3,-2
-2,-8,-22,16,21,3,0,0
4,12,-31,10,-1,5,4,3
1,-5,-20,-22,-3,-4,0,0
2,4,-21,-14,-2,-3,-3,-1
-7,-12,-11,-5,1,-5,-2,-8
1,5,-10,6,13,3,0,1
2,3,-39,31,-3,4,2,2
9,18,53,-92,-13,6,4,4
-20,-48,-95,84,51,2,-5,-8
-2,7,57,-65,-32,-12,-4,-4
8,14,2,-10,0,3,0,4
-1,-4,-27,33,8,0,0,1
0,-7,23,-35,-10,-5,-5,-1
-1,-2,-38,1,7,6,2,1
-2,1,-1,-2,-3,7,-2,-2
-6,-5,-8,-1,7,-4,-2,-4
-2,-1,11,-19,-18,-6,-5,-4
-1,0,-16,6,-4,-4,-1,2
0,-2,10,-7,-4,-3,-1,-2
-2,-3,-22,-43,-18,-7,-2,-1
-4,0,6,6,-6,-11,-2,-3
4,5,15,45,21,7,1,2
1,-4,-56,-55,-9,0,2,0
6,14,42,48,-44,-1,4,4
-15,-22,-73,-83,-40,-20,-12,-10
2,10,30,12,-8,-2,-2,-1
2,-1,8,63,13,4,3,-1
-6,6,54,-41,-36,-12,-5,-5
3,4,-15,-18,3,7,4,2
-9,-10,75,2,-24,-16,-8,-6
3,5,-4,-71,-18,-5,-1,3
14,-8,-21,9,20,22,10,7
-43,-28,-6,43,-11,-27,-24,-27
8,4,25,-35,13,6,6,4
8,7,100,-18,7,1,-3,0
-15,-60,-91,75,13,2,1,-5
13,2,-10,-58,1,16,10,13
-23,10,-128,-25,-66,-21,-11,-14
-20,-45,47,-28,-21,-14,-9,-11
10,36,127,127,104,10,-1,2
32,84,6,-8,-25,6,9,16
-1,-53,-116,-103,-4,29,16,10
-16,37,117,56,19,-21,-14,-13
-4,-1,13,-88,-32,-16,-7,-7
13,-51,122,-30,-51,-7,2,3
29,8,11,29,23,19,7,13
-29,12,-106,-69,-11,2,-3,-10
-23,-69,-128,59,42,20,-1,-7
-2,59,75,-110,-32,-14,-4,-7
42,45,101,-61,-73,-6,7,14
0,-9,56,30,13,-2,-7,-4
-16,89,-12,-125,-54,-23,-12,-13
3,-35,-26,-11,47,14,3,4
-32,-33,-79,-77,22,-14,-13,-17
23,13,38,26,13,10,7,10
7,-28,9,-29,-70,-19,-4,1
-14,-7,-46,127,51,5,-2,-6
-13,-46,30,-22,19,-11,-7,-8
0,8,-97,32,-23,-8,-3,-2
9,-10,18,57,46,14,6,6
1,-15,-27,-80,7,6,1,3
-21,-58,-34,127,72,6,-4,-8
3,-13,-33,-85,2,3,2,3
1,14,38,-54,-47,-12,-1,-2
7,-7,-32,-21,-11,3,3,5
-12,17,0,-85,-27,-16,-7,-9
-18,-33,0,-105,-19,-15,-8,-10
0,-12,-18,-9,10,1,-1,-2
35,53,118,41,-87,4,15,17
-40,-65,74,-24,-44,-28,-22,-22
0,18,26,49,-35,-1,4,3
-3,25,-9,18,5,-3,-3,-3
7,-17,3,-29,-10,3,0,1
17,18,51,77,-3,10,7,9
6,1,46,19,14,4,2,2
12,17,58,-102,11,8,5,5
-35,-47,0,57,91,-1,-11,-17
10,15,-10,10,7,8,6,5
0,-12,-23,-9,4,0,-1,2
12,12,-1,8,8,9,5,8
-9,3,-6,6,-12,-6,-6,-5
3,35,-7,16,12,4,-1,0
6,-3,-63,-24,-14,0,3,3
-12,-22,-2,-27,-30,-11,-5,-5
-3,7,51,23,5,-1,-1,-3
2,13,44,21,5,0,2,1
12,-8,-54,-99,-31,4,3,5
-7,6,116,70,22,0,-4,-6
-11,10,78,28,-5,-16,-9,-9
16,18,23,1,17,14,9,10
0,16,17,32,1,3,5,1
-6,-8,-22,-11,-13,-3,-4,-3
-3,-8,-32,-69,5,0,0,-2
7,19,6,-17,-11,3,1,1
-5,-2,8,14,-2,-9,-5,-4
-7,-12,-28,-8,-11,-6,3,-1
4,8,1,25,2,6,1,3
-1,11,-74,-22,-2,-1,-3,0
4,-27,-20,-19,12,5,2,1
-5,1,58,-13,-19,-15,-8,-5
-5,-4,12,-47,-24,-10,-5,-3
0,-4,-65,3,8,0,4,2
4,4,9,24,6,4,2,1
-1,-3,4,-6,-3,3,-5,-2
-1,-2,-24,6,-6,-1,0,-1
1,5,27,-8,-24,-6,-3,-2
0,4,-10,6,-3,2,-1,0
-3,-8,-23,18,9,-2,-3,-4
1,3,-3,41,4,4,-1,0
2,12,15,-7,-6,-4,1,0
-3,2,1,11,-1,-3,-1,-3
-2,0,-9,-1,-4,-1,-3,-2
4,2,0,39,-3,2,1,1
-3,1,30,8,5,-2,-3,-3
-4,2,14,14,-2,-1,-3,-3
-1,-9,-15,-15,-2,-2,-1,-1
5,7,37,106,27,6,4,4
-4,7,-19,-64,-49,-11,-5,-3
-10,-9,9,29,5,-5,-3,-4
0,-2,-27,4,-1,0,-1,1
-1,-6,-6,-29,3,0,-1,-2
4,11,35,17,9,5,-1,3
0,-2,-21,-42,-9,-4,-3,-3
3,18,35,47,15,3,2,0
-7,-9,2,-27,-19,-6,-5,-7
0,0,13,9,9,2,0,0
3,19,29,-6,5,3,3,1
-1,-14,-21,-10,-5,-3,0,-1
-3,-6,-23,-22,-3,-6,-3,0
-1,-5,-1,20,10,-3,0,-1
5,11,-3,56,9,11,4,4
-5,5,-1,0,-16,-5,-3,-4
-4,-2,35,22,3,-1,-1,-3
-1,-1,34,-25,3,-2,-2,-2
3,0,-8,-5,-7,0,-1,1
-1,0,35,-3,13,4,-1,1
-2,-4,-28,-65,-1,-1,-2,0
0,3,-6,47,11,1,2,-1
11,24,94,-14,-29,0,0,2
-14,5,99,-23,26,-5,-9,-10
-6,-15,-40,8,7,-6,-5,-5
17,12,88,36,38,16,8,9
-14,-35,16,66,2,-6,-7,-6
15,12,-37,31,-22,16,10,10
-38,-44,-27,-13,-44,-38,-24,-23
6,19,74,8,-5,2,2,3
9,9,29,-46,-6,0,2,1
-4,-56,-86,78,49,19,7,2
-16,22,-15,6,-45,-18,-7,-13
12,12,49,0,-11,2,4,6
-44,-100,-61,-61,-87,-34,-18,-24
-30,-27,56,48,-16,-27,-16,-15
28,49,65,-79,-2,15,11,14
15,0,33,13,42,19,8,10
-1,-5,127,6,-44,-10,-1,1
22,18,-11,-76,23,16,10,12
11,20,31,41,4,-1,-1,1
15,-21,2,49,68,27,12,15
-4,43,55,27,80,13,0,-3
11,27,-6,-95,-85,-23,-2,-1
2,-11,109,122,127,54,13,6
-16,-24,76,-128,-119,-31,-11,-11
23,27,-23,-57,-5,8,1,9
-10,7,-15,-86,-76,-13,-3,-1
-2,-26,72,-4,-13,-13,-2,2
-11,5,-47,9,9,-3,-3,-8
-20,-64,-128,6,42,4,-3,-8
25,10,52,52,39,20,11,13
-2,-10,-88,-125,4,4,-1,1
-16,-10,-45,13,0,-11,-8,-10
30,50,30,-17,10,16,10,16
-13,-38,-26,-104,-58,-16,-8,-11
-8,-30,-128,57,43,8,3,-1
-12,13,14,28,-6,-15,-8,-10
4,3,127,-38,-35,-8,-1,2
-25,-32,-68,16,3,-15,-16,-19
-8,-14,74,-24,-21,-9,-5,-4
7,11,-33,-39,-37,-3,-1,0
0,1,-58,2,5,4,-1,0
0,25,68,108,24,1,1,0
0,26,-4,-45,-43,-13,-6,-2
-1,-21,-24,15,4,4,-1,-1
-7,11,-28,1,17,-4,-2,-5
-1,3,34,4,11,-1,-1,-2
18,26,31,-1,-8,7,6,7
-17,-37,-34,-48,-3,-3,-7,-7
-11,-2,42,16,4,-8,-6,-6
4,17,55,-34,-3,3,1,2
9,-2,8,11,-11,2,5,3
-8,4,-44,-4,-19,-10,-6,-6
-2,3,-63,-11,-7,-7,-1,0
1,-11,-28,3,15,4,-2,1
-3,4,-11,-6,-24,-3,1,-3
-2,2,8,9,11,-1,0,-1
-2,-4,-13,-6,-10,-4,-1,-3
3,7,-9,-7,6,2,2,1
-4,-1,0,1,0,-1,-1,-3
0,6,22,-19,-13,-5,-4,-3
1,-8,-14,12,9,2,4,-1
9,20,43,14,23,19,5,6
-9,-8,-22,-104,-48,-19,-7,-8
-10,-14,-78,17,-5,-2,-5,-6
0,5,-8,13,4,2,0,1
1,-2,0,-2,3,-5,0,-1
4,1,2,3,1,1,-1,2
1,8,16,3,8,1,-1,0
-3,4,-3,-5,-5,2,-4,-3
-4,-4,-39,-27,5,-3,-2,-1
0,-2,17,24,-3,0,1,-1
-5,-3,-3,-2,-10,-7,-2,-3
2,3,11,15,6,3,1,0
-4,-7,-2,-13,-8,-2,-3,-5
-1,-1,-1,12,1,0,-4,1
-1,6,24,11,5,0,-1,0
-1,-3,-9,-10,-5,-4,-3,1
-3,-2,-9,-2,-4,-5,-4,-1
7,10,45,-24,6,7,3,2
-21,-27,-38,47,-37,-17,-9,-11
-1,7,9,9,12,-3,-1,1
3,-7,0,9,6,7,2,3
-3,30,84,-18,-43,-17,-8,-7
-2,-12,68,-6,18,3,-2,2
3,1,31,0,-2,0,0,-2
-4,-4,9,1,-2,-7,-2,-2
28,21,17,-28,-17,23,16,17
-34,-28,-27,27,44,-17,-13,-17
-5,5,8,-35,-14,-5,-6,-2
6,7,-1,0,13,8,2,4
-1,-12,-35,-3,-1,-3,-2,-1
12,18,0,-17,-8,7,5,3
-3,-14,-34,22,15,2,1,-1
-7,-8,-7,-25,-24,-10,-2,-7
1,40,2,46,24,5,1,0
8,-11,53,47,22,12,8,5
-16,-14,-59,-83,-28,-13,-7,-10
9,-19,52,-27,-31,-8,0,4
-9,-43,64,-34,-28,-15,-7,-5
31,54,-76,101,51,24,11,15
-25,-34,13,0,-34,-14,-6,-11
-3,30,58,-15,-45,-12,-6,-5
-2,-15,36,13,-23,-2,-1,1
6,-21,7,-57,7,1,-1,5
4,54,90,91,-23,-4,-2,-2
5,37,-63,-6,12,0,0,0
9,-14,60,-12,0,-4,0,2
-12,-7,28,10,-3,10,2,-4
8,15,33,22,26,3,-1,2
-7,-7,50,6,3,-3,-4,-4
4,12,9,33,17,8,4,3
2,-1,34,-28,-24,-2,-1,1
-1,-10,-10,-3,3,0,-3,-4
-4,21,-42,25,18,2,0,2
-5,-4,-91,-48,15,-1,-5,-2
-4,16,0,-22,-20,-9,-5,-4
2,-20,-21,2,10,5,2,1
3,-9,6,-2,-6,-1,-1,0
-8,-5,-29,39,22,-3,-3,-5
-5,-7,-8,54,-20,-9,-5,-4
1,5,9,-22,-16,3,-1,1
-3,-17,-29,-18,19,5,0,-1
-13,-15,-20,15,4,-3,-3,-5
5,4,-17,-41,-3,2,2,2
2,-5,-57,-4,4,1,-1,0
-8,-10,-13,14,-3,-1,-3,-5
-11,-19,-37,6,1,-3,-4,-8
7,5,6,-41,-7,-4,0,-1
-4,-1,-10,3,6,-3,0,11
-19,-15,-11,-19,0,-6,-15,1
19,5,-24,9,-4,-10,7,-2
1,-5,2,-36,-10,0,17,-5
13,-2,16,-3,10,13,-3,-5
-14,-13,-21,9,2,2,-2,-7
0,7,0,0,1,1,-3,18
14,-7,-9,-13,1,-3,-5,-33
-16,1,0,-5,-13,-25,-34,-7
53,-1,-4,-4,13,22,49,10
-31,-9,-19,10,-8,-12,-10,9
-40,-3,-2,-22,-9,-7,8,-13
7,1,-3,-6,11,21,13,17
-3,-5,-5,-6,-14,-15,-18,-26
10,1,-4,4,8,-4,1,-2
10,0,-6,-1,-3,-3,-2,18
-1,-1,3,-8,0,4,9,-5
8,-5,-3,4,-5,-7,-5,6
-37,-2,-8,1,8,7,-7,-2
-15,0,1,-7,-6,0,-1,-3
-4,-1,-4,-1,1,-1,1,-9
-8,1,1,4,4,-11,-41,14
32,-12,-19,-9,-2,19,43,17
-7,4,4,-9,-32,-20,-11,-22
0,-5,0,-1,29,14,5,1
-7,-3,-3,3,-5,-6,-7,5
-1,4,-2,1,0,-9,-7,-2
-10,-1,-1,-3,-4,6,9,37
8,3,-1,-2,-8,-14,-1,-20
-12,-8,-10,-8,-8,6,8,-24
-9,-5,-9,1,9,3,-18,-18
14,-1,8,-3,0,6,16,9
-8,-11,-5,-2,-4,-14,-22,-10
-3,16,-11,-1,0,-3,0,8
5,-5,-8,-5,-6,-4,-14,-32
6,5,8,1,7,5,7,31
0,-4,-5,-6,-4,-3,12,17
-6,-4,3,2,1,2,-5,0
-5,2,3,2,-11,-1,6,-3
-1,8,0,-2,18,-6,-20,-8
-3,-4,-2,-7,-13,-4,5,-1
6,-3,-1,-2,-1,4,10,2
-7,6,11,2,3,-2,-12,-10
-2,2,-32,-7,-1,2,-9,-10
-1,-17,-3,-32,-20,-3,7,7
22,-3,-8,58,34,4,-5,-8
-1,2,14,-6,8,-2,-5,5
-4,3,4,2,-7,-2,-15,-11
-6,25,4,-1,0,0,12,5
-8,-3,-5,-21,-20,-9,-6,-3
-6,-7,-6,-6,-1,-1,6,5
0,0,-1,7,-14,-2,1,0
8,17,5,27,18,4,-8,-8
10,-32,17,-9,-14,-6,1,0
-2,-2,-4,-6,19,6,3,-1
6,-10,-6,0,5,0,-9,-5
-4,-18,-7,2,-9,-4,-5,-3
-31,4,1,-84,-36,-11,6,-1
11,-4,0,91,39,10,1,-8
-7,26,0,-47,15,0,2,2
0,4,2,-25,-11,-3,0,38
2,-1,-1,-48,-6,2,-4,6
-24,-12,0,-5,-39,-16,-5,41
-3,-22,-10,-99,-14,-8,-25,-98
-34,-20,-25,113,19,17,26,105
-40,34,-11,68,-10,-10,-46,-103
4,-16,-14,-6,6,7,12,36
34,16,6,18,-53,-15,-2,30
3,53,19,-128,-59,-7,8,48
54,-1,24,-45,-35,-15,-6,-3
-86,23,-46,110,75,18,4,-8
9,28,61,74,-2,11,58,-56
-16,13,-30,-4,49,-17,-53,-3
51,-48,-14,-67,-28,-5,40,-31
-79,-4,32,-26,-79,-23,-49,28
37,61,17,50,49,31,25,62
-109,127,19,-51,-4,26,107,89
62,-104,-19,110,5,-22,-70,-82
-63,62,-8,7,54,-6,-28,-118
-49,-48,-59,-84,-100,-59,-88,-49
-12,71,25,63,88,-14,-100,-70
-128,34,-71,-119,-91,-3,15,-57
14,64,40,-53,-32,-17,-3,97
-9,43,14,67,54,9,-36,38
-83,9,-123,-60,-86,-1,87,-34
-35,-53,-100,-43,-4,-28,-62,19
-30,13,87,-41,10,4,-2,117
-7,8,75,-78,-55,-2,78,85
31,52,64,87,75,39,22,29
59,127,22,-2,-44,-4,63,126
37,-37,-13,-13,21,-2,-90,-128
12,-99,-27,-31,-46,-3,44,127
70,-128,33,-30,-52,-3,-52,-128
67,127,45,-65,30,9,81,44
48,-35,4,-91,-67,-9,38,-104
63,-77,-101,25,62,41,59,94
37,-128,-44,-100,-76,-9,-47,60
1,-121,-8,-57,-22,3,-71,36
65,-128,-37,-30,-26,26,95,-27
-13,-74,-16,-29,-24,-26,-106,-16
3,-30,4,-42,-96,-29,109,110
-126,-108,-34,93,127,67,-65,53
51,127,-30,-128,-82,-30,-52,114
36,-95,0,-42,5,0,15,62
68,-54,25,-54,-4,-11,-7,56
-45,56,31,-33,-1,-9,6,-6
65,54,-18,91,36,3,-7,9
-10,127,-3,15,22,1,6,-128
-4,125,15,36,17,-13,-30,-24
46,34,30,26,-5,4,68,-17
33,43,-34,-1,49,21,23,-11
-56,57,14,-15,-8,-13,-28,-54
4,-3,5,4,2,5,-13,-71
-9,10,12,62,18,0,2,-10
1,-55,2,-19,-34,-27,1,-23
3,-27,12,12,5,8,0,8
22,-82,-8,38,42,15,-38,-59
-11,-70,13,0,-3,-6,28,25
21,-74,7,3,-21,2,1,25
-1,-36,10,-2,6,8,28,-17
10,-21,-6,13,3,8,-12,-26
23,11,20,-1,-18,-4,1,6
-8,-15,1,-2,12,8,18,-5
4,-77,6,24,6,-12,-28,-23
20,56,13,-5,3,-11,-13,-24
3,78,17,11,-7,-6,6,23
-10,63,-15,4,-2,-13,-20,-5
-7,56,-23,-17,-5,-16,0,-21
-13,8,-8,2,9,25,-10,12
4,11,2,-1,10,-2,-8,1
-37,72,-2,2,-13,-13,-21,-5
36,88,7,-3,10,12,65,-37
5,39,2,-2,-6,-8,4,-5
6,57,15,17,11,8,-11,9
9,-22,-11,-16,-4,-3,-8,-9
-4,-3,-31,2,-15,-16,-27,9
-29,-9,23,19,8,-4,-1,-14
8,-18,13,0,2,5,1,-23
-28,-41,-25,-18,-5,3,11,23
-26,-4,14,12,0,4,-12,-5
8,-28,-45,-15,3,-3,-8,-11
-4,-17,28,5,-6,0,7,16
-2,-26,11,9,11,-2,9,1
5,3,-10,-5,-3,6,-9,-26
-25,-18,-26,-11,1,-5,-2,25
-4,-9,31,16,-4,3,19,8
-16,-24,-3,8,-9,-7,-4,-11
-21,-13,-52,-24,-4,1,-8,-1
9,-3,15,10,7,11,2,2
-3,-12,-36,-25,-2,-3,2,-3
-4,-5,28,2,-5,8,9,3
-4,-3,-24,10,0,-10,-18,11
10,-8,-1,-15,-4,-10,-2,-18
-1,-5,-13,6,9,8,4,2
12,8,56,7,1,2,-4,-6
-11,-8,-25,7,-4,-2,-6,4
3,-1,-21,-16,-7,-7,-1,-11
-11,-9,14,3,1,-2,-3,-7
-3,-9,6,-4,-2,0,10,10
-4,0,12,-10,2,3,-9,1
-3,-5,35,21,-2,1,8,-3
-8,-9,-8,-11,-1,-6,-5,-6
7,-13,-30,-2,-9,3,8,2
-3,3,41,3,12,-2,-8,7
-4,-11,-6,-1,-8,-7,-4,-14
5,-4,-11,-1,-1,1,3,10
-10,-23,-23,-18,-10,-1,8,-6
1,4,22,16,21,3,-5,8
-1,0,-9,6,1,-5,-10,-5
-4,-7,-5,-4,-4,-4,-16,-7
-8,0,-2,-2,-1,3,24,1
-6,0,40,-13,-22,1,9,4
7,-11,-29,10,42,1,-4,1
-20,-2,8,-9,-7,-3,-7,-7
18,4,13,24,5,3,7,5
8,-29,9,-27,-8,4,5,-2
-24,3,8,21,-5,-7,-9,-3
15,9,-2,-6,-18,-11,-8,-8
20,8,21,-53,9,9,14,55
11,15,-33,38,-13,-7,17,-76
17,-6,-45,33,57,7,-25,5
-8,-56,27,-4,-24,-2,2,8
-4,2,-14,34,-4,-2,-10,-54
-16,29,45,-123,-82,-11,5,93
110,-23,7,73,58,9,29,-81
-46,27,-54,18,45,4,-18,39
-7,15,-36,111,-2,5,-6,69
-52,31,29,65,8,27,64,26
-59,81,41,-128,-128,-10,68,-33
-56,-14,-54,103,63,-5,-96,-99
-69,-32,16,-30,-31,-10,45,92
-6,34,-4,-87,-84,-49,-43,68
33,-32,-19,103,72,63,85,86
25,8,25,-118,-76,-8,3,28
3,126,-24,-37,-45,-10,-20,-35
88,-18,-51,94,117,-14,-128,-128
-16,-92,-4,-128,-128,-23,23,127
-4,75,17,84,12,9,91,96
126,-116,45,-43,-37,-26,-89,51
8,-88,34,75,-66,2,10,-74
-128,55,-30,-13,23,-20,-127,-38
0,16,14,64,6,12,45,127
72,-79,-12,-26,-56,3,30,90
9,57,-30,-36,-76,-13,-15,-77
52,-110,-71,79,92,-8,-89,-19
34,-7,-84,-114,-77,-37,-70,51
-1,61,-58,-105,-21,29,84,-58
-85,30,-25,67,92,2,-62,56
21,55,37,-91,-25,8,32,86
32,-62,107,-91,-2,-1,30,-41
-20,10,66,-123,-50,-18,13,35
7,6,43,-14,95,55,83,127
105,-26,58,-25,47,1,-49,-46
-68,-11,-6,-6,-4,8,11,48
-38,16,-24,-55,39,8,9,-89
-46,-42,-10,-51,-23,5,59,64
-22,76,12,4,-29,-23,-30,28
-37,-99,-72,19,10,-1,-11,69
-53,27,-7,103,35,0,-25,-128
8,-8,-3,-10,-5,-7,18,65
-33,31,13,32,-20,1,26,-44
36,33,7,-47,-28,-3,10,-72
-21,-2,5,41,25,-3,-20,-26
-26,-2,1,-4,-7,13,-10,-46
3,5,8,-16,-44,-23,2,-5
3,23,7,12,31,19,25,-85
-22,-49,-23,9,3,3,-10,52
10,6,-6,-18,0,-17,-13,-58
-20,9,-6,-6,-27,-1,14,-10
11,51,18,-5,1,2,-1,-13
-10,15,16,26,4,-25,5,-12
9,5,2,-39,-3,17,-18,-9
-15,9,8,-1,-16,-6,20,-6
-5,16,7,-5,-2,0,-4,-23
5,-6,-9,3,11,-5,-3,11
2,-18,-8,-9,-13,5,20,-6
-28,-26,24,2,-1,-2,3,19
68,-35,-44,-3,-3,-3,7,-11
-25,-14,0,-1,-4,-1,1,13
12,-11,-7,-13,-6,-10,-3,-20
-4,-1,-3,13,4,7,5,-9
1,-2,7,13,6,1,-12,-10
-5,3,2,-30,-10,-11,-15,-3
-22,-1,-6,-5,-2,-4,-1,-1
27,11,10,-6,-7,2,9,8
-4,1,-20,14,-7,-6,-9,-17
1,-15,12,12,23,9,-8,11
-7,-4,-13,-1,-9,-1,-1,3
-26,-6,-30,-40,-16,-2,-40,-32
-9,-1,15,3,-1,1,51,21
9,0,-4,13,11,10,-28,-2
7,-8,-11,-16,-6,-6,33,21
-11,-3,-2,17,-2,-2,-3,-3
-7,0,-25,-20,-3,1,-7,10
-13,-3,13,12,5,3,-8,-16
10,5,46,-8,-7,-8,-4,0
-5,-15,-53,-5,-6,-4,8,9
-4,2,5,-13,-1,-3,-4,-6
1,-7,-3,6,1,2,-4,0
-2,-3,-17,6,4,4,-12,3
2,-1,3,-12,-4,1,16,-2
2,2,14,-7,-4,-4,-29,-21
2,1,-16,0,-1,-1,26,17
-4,-1,-8,1,-3,-7,-8,-6
-1,6,37,2,-2,-1,5,5
-9,0,-79,-2,3,1,-5,-8
-8,-6,-7,0,-6,2,-37,-7
20,-2,-30,-10,10,0,36,22
-23,0,15,7,-7,-2,5,-5
-5,0,44,0,-2,-4,-3,-5
3,-11,2,0,-1,0,-1,1
2,25,-9,0,-3,-7,-14,-7
1,-17,-8,-2,4,3,-4,-2
-2,8,28,8,-3,1,-3,0
1,2,-32,-12,1,1,15,10
-12,-12,14,13,-7,-6,-10,-7
8,2,1,4,0,-4,9,6
-10,2,19,-3,-5,2,-4,-8
-2,0,-11,-17,2,-2,-22,-8
-1,-3,-1,1,0,3,10,-11
0,5,5,-3,0,-4,8,17
6,-4,-13,3,-10,3,1,-5
0,7,5,3,14,1,3,0
-10,-12,-24,-5,-7,-5,-16,-6
3,-2,5,-5,1,-4,-7,-8
-6,14,46,-8,-15,-3,6,-2
-1,-19,2,32,30,8,1,7
-15,-12,-60,-44,-18,-8,-8,-8
7,13,35,-9,-12,-6,4,-2
-15,4,-6,0,6,-2,1,1
3,19,9,-34,-53,-7,22,13
-6,-10,18,68,54,14,-15,22
-28,-32,-22,0,-3,-4,1,-3
14,-2,10,-35,-38,-17,-15,-29
-19,19,8,19,21,9,19,15
12,22,9,12,5,-4,-27,62
-33,-27,-17,-35,-30,-2,20,-61
-33,-12,-7,70,62,14,-19,-67
6,20,-6,0,-23,-8,-14,-20
5,-37,10,-64,-37,-2,15,11
46,2,-5,24,28,8,2,-16
31,-1,-4,-52,5,3,18,73
-4,38,23,-100,-48,-4,1,15
-56,-16,3,16,45,8,21,-88
-25,5,17,-40,-20,-9,-64,30
-4,-99,-16,-75,-56,2,50,92
-83,-30,-5,8,57,-10,-31,-66
-2,98,-19,-1,25,5,-37,19
18,-56,-18,62,31,28,91,97
33,-7,31,-12,-11,-5,-1,-1
-78,32,-25,-26,-3,-7,-14,-19
22,-128,-3,-4,-95,-5,73,14
10,93,-8,127,120,36,2,81
87,57,-58,-65,-69,1,-3,-69
-19,84,100,-63,-89,-8,66,117
-28,-20,-2,-8,40,-2,-71,-109
-63,-54,25,-128,-87,-32,-35,115
-36,78,-7,-87,-83,-15,59,89
10,-128,-70,7,20,48,39,127
-11,76,-58,-122,-101,-30,-43,-15
8,116,78,-93,-52,11,57,41
51,-32,2,-16,32,-24,-95,-111
-62,-10,-20,-62,-33,-17,6,40
69,68,28,-71,-69,-21,15,6
-22,31,-81,64,66,1,-86,37
-98,13,39,-64,-77,-15,34,-20
127,26,-23,97,83,-13,-38,-82
16,37,36,-72,-11,-28,-48,114
-11,43,26,-128,-114,-45,-21,8
2,-59,-51,127,99,13,-7,46
88,34,51,-79,-27,-6,-19,24
-57,-60,3,-70,-58,11,33,114
-14,-78,-6,127,82,12,-18,-128
-71,-10,19,-112,11,11,1,122
29,-78,-4,-55,-13,5,20,66
-26,-38,-3,-43,5,15,16,-86
-18,-8,-19,-53,-51,-5,17,84
37,33,0,51,-1,-15,-20,-46
-16,-46,-12,33,-5,9,6,99
-39,46,24,44,29,6,20,-47
9,-28,-12,10,-17,-4,-8,-39
-32,29,-2,55,47,21,19,-2
79,-9,15,-116,-87,-8,37,62
-57,35,-13,82,80,30,-54,114
59,-42,-35,-127,-16,-25,-100,60
-36,7,1,-128,-68,-8,-11,83
-24,31,-18,-65,-19,-6,-10,-23
43,-14,7,-23,-19,-4,25,18
7,69,5,-27,-19,0,28,-59
37,-10,1,70,79,4,-20,4
-56,-19,-18,0,13,-2,-20,-73
-3,24,16,28,30,5,5,-39
-11,-26,4,28,1,6,34,-18
-7,7,12,4,-10,4,20,-16
66,9,17,21,8,31,56,24
0,-117,-41,84,47,-23,-66,-85
1,17,-24,-106,-22,-5,-15,98
-1,38,-13,-61,-19,-2,-11,57
-9,9,-4,19,12,-2,-14,22
29,13,15,-37,-33,0,46,60
9,-5,3,22,-8,0,14,-49
-29,-16,7,36,18,-2,-7,-25
-48,-2,-5,29,3,-8,-9,-42
23,3,8,-8,-6,11,25,0
-13,0,-7,26,-5,0,7,-50
1,23,2,-13,4,5,11,7
-22,-7,-3,30,7,-6,-24,-56
3,13,10,-16,-10,-6,-8,-1
7,13,14,3,-3,-2,9,-4
0,-15,-2,-30,-20,-6,2,1
-18,8,-1,95,5,-10,-27,-34
-7,4,1,-48,-3,2,3,18
0,-15,-4,15,4,8,23,7
5,-20,-10,-4,5,3,-2,-9
-21,-1,-10,0,0,-7,-18,-28
4,7,7,-28,-22,-11,-4,20
1,-18,3,6,-8,-9,22,-15
-3,-16,5,-7,3,12,-5,-10
-10,5,6,-12,4,1,-9,-9
4,-1,3,11,-1,2,15,16
3,-7,-5,-21,1,-3,-4,-6
-9,-2,-10,10,-4,-4,-11,-1
-10,5,-15,-18,-2,-6,3,-5
4,3,-10,5,0,0,2,6
-4,-6,-6,5,0,2,-6,-8
-3,-7,-6,-8,-5,0,8,4
-5,-5,-9,0,1,-6,-8,-11
-1,0,-1,-1,-2,-2,-2,-1
-6,-2,2,0,2,6,3,-5
3,-3,-1,3,-2,1,4,5
0,0,-7,-18,0,-3,-8,-3
-3,1,2,7,-8,1,5,2
-2,-3,0,-3,14,4,5,0
-2,-4,-2,1,-7,-6,-4,-5
-4,0,-1,-2,-1,-3,-6,-7
1,1,0,-5,-6,-2,4,5
-2,-1,-3,1,-1,-2,3,-2
0,-4,-1,-3,-3,-3,-2,-4
-2,1,-1,-3,0,-3,-7,-1
0,-2,-2,3,2,5,3,3
1,-2,1,-3,-5,0,-3,-3
-1,-1,-1,2,6,0,0,0
-3,-2,-4,-5,-4,2,0,-4
0,-3,-1,0,1,-7,-6,-1
0,-2,-2,-3,-7,-2,-4,-3
-2,0,-2,-3,-4,-2,-1,0
-3,0,-2,1,2,0,-5,-4
-2,0,1,-2,1,-5,2,-1
-13,5,2,-33,-15,-1,3,8
20,-6,-10,82,31,10,9,42
-2,8,0,-17,-18,-6,2,-37
-8,-24,-2,-11,9,-2,-27,-47
-2,7,0,2,-2,-2,-1,6
-13,19,10,-90,-36,-14,0,-4
28,-3,-13,92,69,35,31,62
-46,35,0,-4,-10,-13,-27,37
22,-58,0,-33,-42,-17,4,-78
-58,-45,-27,51,44,8,-28,15
12,48,10,52,-18,-6,-16,-83
12,-55,-1,-97,-41,-5,14,1
-7,27,8,127,70,21,25,115
-1,90,12,-96,-76,-19,1,51
10,-105,0,39,40,-12,-72,37
-13,-30,-16,23,19,-1,-6,57
12,14,-40,-7,-62,-7,-29,11
-18,-95,21,-23,29,1,7,110
-13,127,81,-48,-25,32,120,127
7,81,-15,-1,14,3,-82,-117
-7,-89,3,16,24,-17,-33,70
-46,86,-51,-93,-55,-6,21,45
79,6,15,74,88,32,60,-120
-41,-5,7,-35,13,0,9,96
22,127,44,-128,-99,31,122,44
-24,-98,-44,127,112,-21,-101,-128
-22,-17,-35,-128,-107,-22,-58,127
55,1,13,-97,-84,7,107,102
72,-86,-19,12,21,-16,-101,-104
-35,52,3,20,23,-19,-6,117
-86,-1,4,-103,-47,-25,-40,-111
55,-52,8,127,68,-23,8,91
34,-2,6,-72,-61,-7,-44,127
-10,-11,-20,-27,56,17,-23,-100
0,44,-3,-62,-12,0,-1,84
44,95,32,-92,-74,-16,31,117
-84,-71,-28,103,112,21,-52,-109
107,-76,47,-115,-122,35,99,91
-57,88,-12,-53,-3,-36,16,-47
49,20,-3,-128,-60,-18,10,3
-22,-20,-26,-50,-11,1,0,19
30,28,25,-2,8,6,-5,-58
-9,-66,-18,27,-1,17,9,14
-9,-3,-7,108,13,22,26,-25
-7,22,16,-5,30,-14,8,-17
-4,-22,-6,39,-9,-2,-4,-42
11,-20,6,21,-32,-5,10,-4
-39,-3,-6,35,42,2,-49,-92
-11,19,-3,-9,-5,-13,-3,8
-17,13,-5,-31,-17,5,20,-24
-11,-28,-14,26,6,-8,-21,-5
-32,-14,-7,-5,6,8,-10,-26
-31,7,12,-16,-9,-6,23,-24
21,24,7,25,-10,-2,18,20
10,-8,-7,-5,14,-4,-29,4
-20,-18,-4,9,-3,-14,5,-32
6,46,6,-9,-18,-25,-45,12
3,17,2,-1,15,38,20,13
1,-13,-14,0,6,17,42,12
-30,-9,-2,-10,-3,38,6,-19
-11,0,-2,0,10,-13,9,6
-25,1,4,-11,-8,-24,-76,0
27,-15,31,0,-16,-40,-2,-7
33,9,2,29,8,6,21,25
53,-11,-91,-31,5,11,35,-3
-27,-13,1,12,-15,18,7,-49
-11,-8,-6,-13,-5,-13,-34,-3
-8,28,93,38,33,2,-24,-7
1,-29,-71,-20,-23,-18,14,-17
-30,-6,37,-29,-16,-6,43,10
11,-11,-8,14,8,12,-31,9
-35,-10,-35,-11,-2,-14,-12,-23
-19,18,66,30,18,19,12,7
15,2,-29,-5,-9,-10,-6,11
-16,-5,14,2,5,1,-8,4
-13,-8,-14,-6,-1,-4,-3,-8
-3,12,19,-6,-4,6,12,13
13,4,-23,-7,-5,-12,-11,-5
25,22,89,20,6,-4,-28,-4
-47,-26,-98,-4,-5,-4,36,-19
18,-2,45,-21,-14,4,-11,13
13,6,-3,-6,7,-1,0,10
-26,-19,3,10,-1,3,1,-6
-35,14,82,14,4,-3,10,-18
-7,9,-58,38,1,-4,-39,-48
-47,-24,27,-75,-21,-17,45,-11
44,20,68,25,9,7,-7,5
37,-50,-102,-44,-14,-9,-35,5
1,18,36,34,15,18,34,24
19,15,20,19,5,-12,-22,2
-40,-14,-88,-4,-10,-2,-2,-22
28,13,64,24,5,-3,5,19
-29,-5,29,-20,-2,4,8,-2
13,13,-15,3,-1,-8,-22,-5
11,-27,-91,-17,1,-7,-2,16
36,7,46,-58,-27,7,-51,1
19,9,29,-23,10,-10,32,36
-5,5,15,25,-1,4,-11,-31
-15,-2,-52,21,4,4,16,2
11,-14,-66,-105,-21,-19,-36,-9
-42,-14,69,63,-3,7,-1,17
48,33,50,30,10,5,-21,-23
0,9,40,3,10,18,33,-15
-5,-8,-51,8,-5,8,37,-9
13,16,-6,-28,-3,-9,1,11
-25,-13,33,93,4,-10,-18,1
-10,-2,-23,-48,-10,-1,6,3
83,40,18,38,13,1,-12,-16
-30,-46,-54,10,-2,-1,-18,-51
20,27,73,0,-5,-4,12,24
-23,-20,-5,-36,-11,-9,-4,-25
16,18,47,12,13,11,-5,5
14,9,88,61,-4,-6,35,3
18,-35,-17,-43,-10,-9,-35,-9
6,-16,-74,-47,-9,-8,0,8
-53,-26,77,100,1,-18,34,-8
-65,24,-40,-128,-10,11,8,-14
86,2,-22,97,5,12,62,39
12,13,-10,-73,-6,0,1,-16
-56,-12,28,47,14,-11,6,-7
-1,29,63,11,-12,-2,-21,-14
-18,-27,-38,-35,-3,-1,10,15
16,-6,89,127,21,10,-11,18
-62,-26,-101,-99,-38,-19,-15,-19
5,-68,-4,28,-6,-5,-4,15
-20,17,22,20,13,5,-6,-1
17,-14,122,59,-8,-7,-7,10
5,25,83,38,29,24,4,7
0,-8,-53,-55,-25,-17,-9,-3
-34,-12,19,-63,-13,-9,-5,-12
-2,6,20,21,5,-9,-30,28
4,-3,-84,19,15,24,9,0
5,48,-31,-46,-3,-2,-9,-9
63,23,64,127,46,11,5,26
-87,-53,-123,-128,-66,-26,-5,1
-17,-1,110,71,13,13,-13,-12
11,25,-59,7,13,7,3,17
-50,-58,-128,-27,-14,-7,-17,5
4,38,-25,-73,10,8,13,-38
43,3,91,40,-20,-7,5,47
-17,-68,-118,-50,-29,-19,-13,-21
-48,40,71,11,44,26,19,25
7,10,-4,-23,-15,-2,-8,-57
7,-12,-54,100,-12,-6,3,-3
34,20,2,-37,45,13,-8,3
73,-47,-95,-30,-44,-23,2,-2
42,41,115,89,16,-2,-7,33
-91,8,-80,-108,-28,-8,-11,-3
17,-40,87,69,-1,-4,-2,3
-15,-14,3,-60,-11,-4,-8,9
10,3,74,78,4,-13,-38,-14
66,17,96,33,18,31,50,12
-14,-11,-79,-66,-21,-10,-1,-1
-14,41,106,44,4,11,-1,-8
-17,13,53,56,38,6,14,4
-25,-70,-78,-48,0,-19,-40,-5
-6,23,46,79,9,10,14,-8
-8,-12,75,14,-54,-13,-4,-4
70,42,-8,77,58,20,14,27
-20,-54,-95,-93,-12,-13,-12,-8
-21,8,31,35,17,5,4,-12
-16,-14,-96,-128,-67,-26,-18,-13
-58,43,7,21,63,20,4,13
-3,24,77,37,-15,-12,-2,-57
-1,-3,108,-55,-27,-5,-7,15
-32,-23,-94,56,25,-1,-11,-12
-122,-44,-56,-72,-56,-14,-24,-35
40,97,53,79,9,0,35,27
4,13,91,26,8,-10,30,-11
8,-49,95,56,13,17,-7,21
11,-69,-45,64,-26,-17,-11,25
0,-20,24,-110,5,8,14,8
-34,25,-46,1,-31,-6,-5,-6
-4,44,127,78,43,13,29,-24
40,17,-50,-26,-19,3,16,29
5,-5,78,75,-17,-7,-13,-5
76,42,-10,116,90,20,-7,84
-19,-14,-91,-128,-36,-17,-27,-99
21,-7,-75,1,-30,-8,24,-12
8,-7,-23,38,-12,-7,2,4
30,16,118,114,53,28,6,21
-30,42,31,-27,-23,-23,-18,-16
-95,83,127,8,25,20,-15,-1
28,-51,-108,-23,-28,-10,14,-34
-29,5,-97,-41,-28,-16,-25,-11
-25,55,78,10,32,11,-29,1
59,21,-9,-121,-23,15,63,25
-26,-16,34,-7,-7,-9,-16,-32
-51,-34,-71,7,-3,3,9,-28
33,-15,-46,62,6,-12,-10,10
49,10,-22,-17,-2,-16,-17,-22
-2,24,44,-49,11,20,-17,29
-25,-82,-67,-115,-52,-35,-3,-46
18,-9,22,53,-17,1,13,12
8,4,94,127,21,6,5,-2
76,88,51,-10,37,27,12,24
-95,65,127,41,-44,-10,-16,-10
-32,10,-7,-22,33,-2,-8,-22
-53,-82,-91,-66,-43,-13,30,-27
1,91,118,44,21,2,-23,-67
81,-44,-49,-33,2,14,33,45
-4,21,-18,31,-1,1,7,-62
46,-70,28,40,9,2,-32,2
-4,56,36,1,15,1,5,25
-1,-66,8,-21,-11,-7,-15,-12
-3,-9,-86,-41,-34,-5,30,23
-1,-28,72,82,41,-2,-37,-18
1,-92,-90,42,-7,-2,18,58
37,12,74,-44,-8,-16,-33,-29
-14,18,73,77,-46,-22,-2,47
-52,-19,-70,-103,10,-8,-19,-3
2,-3,8,14,37,20,9,27
15,-36,-55,-8,-10,-2,-36,1
30,-54,-90,-95,1,9,29,41
5,80,115,47,-41,-17,0,-8
-34,-13,22,33,0,-22,-35,10
-5,-60,-12,-86,10,33,13,-14
24,5,127,81,12,5,-11,17
1,-114,-128,-104,-37,-15,-36,-12
-12,15,64,-20,2,5,20,-3
79,57,127,50,16,8,17,26
-9,-48,32,-4,11,-6,20,1
40,25,95,19,2,15,25,18
-33,-55,-114,28,-3,-19,-7,-31
36,35,-42,-44,-9,-2,11,14
-43,-4,-10,-90,-33,-9,-24,-13
59,-4,41,87,54,17,10,23
-22,24,-128,-21,-34,-12,-20,-3
-78,55,32,111,7,-12,-15,-38
40,-32,-53,30,29,9,-3,-21
-17,89,50,-9,-11,-1,-2,2
13,-43,-59,2,-8,-9,33,28
-49,11,9,63,9,11,9,-11
31,40,28,-11,9,10,18,-9
-15,56,66,127,15,11,-14,-14
82,29,82,-6,-8,-4,38,32
-82,-85,-108,-41,-22,-25,-9,6
-8,15,31,20,9,3,-22,7
13,-22,-78,-70,-17,-9,1,-10
0,17,11,11,9,10,-25,-5
60,72,84,79,14,16,-8,14
-6,28,-39,-44,14,4,-16,7
-15,42,37,-12,-12,-4,17,11
-23,26,2,53,-21,-16,-33,-45
31,-14,10,26,10,-1,6,3
-71,-4,-118,38,6,-10,-27,24
27,23,84,-21,9,17,17,14
33,-35,-8,-99,-17,-6,0,-9
-8,19,-33,16,-15,-16,-7,1
47,53,109,92,23,20,54,-12
-43,-48,-84,-128,-46,-23,-25,-62
-10,-37,53,64,6,6,5,-15
-1,-31,59,44,2,1,-10,-11
18,27,67,21,-3,-6,15,7
1,2,-97,33,0,-8,8,15
-38,-4,79,-49,1,3,-36,-28
12,36,39,-19,13,12,-4,1
-18,-3,-27,-11,-1,2,-7,0
13,-25,-90,-20,-8,-10,0,-5
-14,-3,54,3,-4,-5,-16,8
-3,-33,-50,-37,-31,-15,3,-3
16,-24,34,67,46,17,-6,18
-12,42,50,23,5,6,-4,-24
-30,-57,-128,-64,-58,-28,-17,-32
-20,19,127,-107,-36,-21,-14,3
19,-32,33,35,29,9,17,14
-20,-72,19,-22,-26,-23,-22,-16
27,14,54,16,31,15,3,8
3,21,85,36,-5,7,20,-9
9,-21,-59,29,-5,0,-26,-17
-60,-14,-14,-96,-6,-5,23,49
-38,34,45,-96,-17,-13,-7,-44
-1,4,-26,-2,-1,-5,-6,6
14,35,75,-19,3,3,2,-15
-5,-36,100,119,18,0,-17,-8
-45,4,10,56,8,8,18,45
9,18,-66,101,28,13,-1,-8
9,-21,-20,-63,-16,-9,4,11
-1,34,79,18,-8,-5,-23,-3
-10,-41,-13,-18,-11,0,1,19
26,-16,-4,48,-12,5,12,3
41,33,122,47,58,19,10,48
29,16,-68,13,2,-1,-42,-43
43,37,59,94,16,5,52,39
-47,-34,-64,-67,-23,-18,-5,3
9,-81,-101,-41,-38,-13,-1,-54
-5,55,-4,39,13,5,-6,11
32,60,66,66,39,20,9,-5
-6,-24,-99,-24,2,0,-14,-12
-79,-42,63,-34,-34,-19,10,18
54,-8,-6,4,14,14,-3,25
30,52,51,51,-2,5,42,3
-2,-12,66,-66,-13,-16,1,13
-16,31,-87,-79,-27,-14,-21,-20
-9,-17,77,-60,-31,-5,25,17
-6,-13,-17,60,52,13,-10,1
5,7,10,15,21,6,-10,-14
2,7,-29,-5,16,3,3,4
-2,-21,-8,-26,-36,-14,9,-8
-7,-36,-50,-60,-24,-16,-29,-8
18,12,-27,2,3,11,22,26
-16,2,4,47,-3,-5,-13,26
-4,-14,-24,28,52,13,8,-38
-9,-25,-29,-13,-1,-5,-22,-20
0,7,28,50,-25,-9,-2,5
7,17,13,-55,-9,-1,9,45
-4,-19,11,62,1,1,-1,22
-9,-14,-25,-14,0,-6,-21,-16
1,9,-1,-17,12,3,-4,-32
-1,-1,-1,15,-16,-5,-9,-22
2,-5,-10,12,-10,-3,14,27
-3,-9,-12,-34,-3,0,-6,10
6,7,1,3,-11,4,2,3
-6,-1,-6,25,9,-1,-5,-18
-3,2,21,-6,-4,1,9,0
-1,-4,14,-18,-10,-3,-2,3
2,-5,29,28,16,-2,-1,1
-2,5,6,5,-16,1,-6,-24
3,8,-2,-67,-45,-7,5,4
-4,-25,-45,83,78,16,-1,-3
2,3,-1,-27,-14,-2,0,1
-3,3,-2,-20,-24,-12,-6,-12
-1,-1,-12,-28,3,-3,4,1
-5,-1,3,-48,-84,-20,-8,4
1,0,-11,83,95,27,5,-3
-5,-9,5,1,-27,-8,-6,-9
-4,-7,1,6,-9,-6,-4,-1
-2,-3,0,-49,-34,-11,-3,-3
-1,-2,-4,-7,2,0,-3,0
0,4,3,1,-2,2,-3,-9
2,-6,1,28,17,2,6,4
-3,-4,-9,-12,14,5,0,1
0,1,1,-15,-26,-11,-4,-1
-2,-4,-5,4,17,-1,-2,-7
-1,-5,-7,11,4,0,-3,0
1,4,2,-2,-1,-1,-1,1
-1,-2,-1,-6,-5,-3,3,-1
-2,1,-2,-5,-10,-1,2,-3
1,-5,-4,19,13,-1,2,1
1,-2,-2,-7,-8,-4,-4,-5
-2,-1,1,5,-11,-5,-2,-2
0,-3,-12,-28,8,3,-2,-3
-2,-4,-5,17,11,5,1,-2
0,-4,0,-9,1,-3,-2,-1
-2,1,4,0,-51,-14,-4,-2
-1,1,-1,39,48,18,4,-3
0,-1,-1,-8,-5,-2,-2,-1
-3,-3,-4,3,-10,1,-1,-1
-2,-3,-2,-37,4,-4,-2,-3
-2,2,1,-4,-21,-10,-5,-3
-1,-2,-2,13,6,4,1,0
-2,1,-2,-12,4,-3,-4,-2
0,-2,-6,2,7,-2,-2,-1
0,0,4,1,-1,-2,0,-1
-3,-5,-6,6,5,-1,0,-2
-2,-1,-2,-13,-10,-2,0,-1
-2,3,8,5,11,0,-2,-2
-5,-8,-2,6,-6,-4,-8,-2
-2,0,6,-11,-12,-1,-4,-2
-1,-2,1,5,5,1,-4,1
0,-3,-4,7,5,2,-1,0
0,0,2,-10,-6,-1,3,-2
-2,-1,-3,-1,-4,-7,1,-1
-1,-2,-5,1,5,-2,2,-3
0,-2,-12,-5,7,5,4,1
-2,3,14,9,-15,-5,-3,-2
-1,0,16,-5,8,1,-3,2
5,3,-20,7,2,0,-3,0
0,-10,-25,-9,-11,-7,-4,7
-4,-1,2,-34,-10,-4,0,-6
4,0,12,16,4,3,3,4
-2,3,-10,-3,5,5,2,-2
-8,-3,34,6,0,-1,-1,-1
22,-6,-31,-11,-1,-2,-2,2
-6,-2,-5,-4,-4,0,-1,-5
3,0,13,-4,-3,0,0,6
-1,-1,-13,5,3,2,-3,-7
-7,-3,7,11,2,-2,-1,-3
-1,-1,-6,-9,-5,-4,-3,-3
0,-4,-3,-1,-7,-3,-2,-2
-2,-1,2,0,2,2,1,-4
-5,-1,1,0,1,-2,-1,-4
3,-2,-12,1,-2,-2,1,4
-7,-6,-1,0,-1,1,1,-3
-1,2,11,-2,1,-4,-1,-1
5,13,6,8,2,3,0,8
-51,-7,22,19,-6,-6,-7,-11
22,0,-59,-44,-10,-8,-6,5
1,3,17,8,4,5,0,2
-7,3,-7,1,1,3,-4,-2
8,-4,17,21,2,-4,4,-12
6,14,-10,14,9,5,4,1
-6,-22,50,-49,-23,-14,-16,1
25,-17,-17,5,-5,1,-4,-28
15,15,-79,-10,12,8,3,-7
32,-53,43,-1,-22,-16,-14,8
-28,3,-43,13,25,7,2,-17
14,13,-13,-69,-10,-8,4,42
-22,-5,66,39,1,0,-7,-46
-27,-22,-19,-78,-9,-4,-6,-20
-13,-8,-69,30,-17,-11,-6,-2
11,20,112,-29,5,3,4,-6
-17,-19,-51,24,-7,-5,9,43
8,0,-31,14,-3,3,1,1
16,19,68,56,15,6,10,17
-38,-22,-103,2,7,-4,-33,16
40,15,33,11,-9,9,33,-36
-41,-9,-9,126,4,-17,6,39
32,40,48,-13,4,21,22,-48
-32,-20,34,49,-10,2,-12,4
1,9,-6,53,2,-1,-9,9
7,20,-91,-94,13,4,3,2
3,31,23,81,-5,-7,-6,-3
-35,-63,-58,-17,5,-11,-1,-1
-9,12,10,-88,-6,-3,-11,17
-10,1,47,8,11,8,0,-23
-9,-93,-104,87,15,-1,-10,20
0,38,63,-80,-15,-1,4,-33
26,34,105,55,10,4,2,34
-14,-23,125,5,-13,-12,-11,-24
19,31,12,-24,2,5,4,11
7,1,90,124,8,6,12,-3
-18,-32,33,-128,-43,-17,-13,-15
7,-5,70,83,3,-2,-2,6
-7,-25,-64,49,4,-2,-4,-6
6,50,-21,-101,-34,-15,0,-2
15,9,38,15,19,6,5,3
9,-19,-70,-46,-3,0,-8,-19
45,25,124,-70,-8,-10,-16,90
-35,-39,-44,-6,-1,5,32,14
5,38,95,103,19,-4,-6,-29
13,32,74,-85,-22,4,9,2
-6,-47,-43,-88,-24,-17,-26,-27
5,45,116,95,26,19,21,34
29,-10,-57,21,0,-6,-14,-37
-33,-30,-67,-29,-8,-5,12,2
10,30,54,-46,2,3,3,-6
5,-5,82,101,-9,-8,-11,-17
23,-64,-110,-107,0,-1,-7,-3
-39,33,12,89,21,7,-18,12
26,34,70,26,4,8,17,-16
12,-72,-126,-38,2,0,-1,-1
-58,6,67,57,-6,-4,6,49
79,-9,119,9,-12,-8,-48,-41
-80,-43,-33,11,-1,-9,28,-25
35,56,10,-82,0,7,2,11
-17,-4,38,46,-2,-11,-17,-10
-6,37,74,8,15,15,23,17
-5,-20,-8,98,6,-6,-33,-38
52,-3,10,-62,-14,-5,-13,-54
-36,-47,-128,-58,-9,-11,13,-5
0,33,43,-66,-16,-8,-2,-16
26,-31,33,22,5,8,1,6
-26,-19,-5,69,15,1,-7,20
28,-44,-99,-59,-17,-5,-19,-15
-76,-13,62,68,15,-1,2,38
12,15,80,-34,-9,5,11,21
-27,-20,14,62,6,-3,-10,-3
19,2,76,11,6,10,13,22
31,12,-110,-64,-8,6,23,21
-16,1,8,-33,-28,-26,-21,4
9,-19,-81,4,-1,-1,-16,-14
28,45,100,33,20,20,2,-8
-7,-34,-109,33,0,-15,-2,13
1,11,83,-25,1,11,9,-1
4,15,78,-45,21,5,9,-16
7,26,-84,-31,-22,-8,-4,47
-25,-16,33,-3,-17,-8,-11,-45
-19,51,-51,-77,-5,-11,-7,-24
-3,-45,-32,95,-10,-9,-1,12
-34,-2,9,-88,10,11,14,48
22,37,45,72,21,8,-5,-73
-15,-22,26,27,9,3,19,-5
18,28,14,-16,-10,-9,-9,0
-39,6,19,93,19,3,-2,-1
-10,-28,-70,-60,-13,-8,-4,13
23,-35,25,16,3,2,-7,-2
2,-38,-44,22,-7,0,-8,7
13,16,119,-44,-1,0,3,-2
5,-63,-58,-66,-24,-12,-7,2
4,13,-19,10,3,1,-12,-4
-15,1,74,24,-7,2,19,7
-50,-33,-66,19,18,3,-27,5
28,23,84,79,3,10,20,26
-14,-24,-111,-52,1,1,-2,6
40,42,114,-38,-1,2,-4,10
-48,28,70,-33,-21,-11,-4,-33
0,33,90,17,5,2,12,10
-5,30,88,62,3,-2,3,-1
-36,0,-74,10,13,3,-1,-3
33,-47,-17,13,-21,-15,-5,-22
-39,-9,58,-14,-3,-3,-4,-1
5,27,28,22,-6,3,6,7
21,37,86,65,8,1,3,3
4,-25,-55,66,-23,-14,-9,-14
-15,-33,-106,84,-7,-13,-23,12
12,-40,-100,-128,-31,-5,6,-1
8,32,108,76,1,-5,14,-3
25,-3,59,92,15,5,4,-2
2,8,-4,23,-1,1,-8,-1
-15,-3,24,32,15,-2,-14,-3
-12,-13,-33,-66,-15,-1,19,6
8,29,10,-28,6,8,11,4
26,1,56,18,12,5,16,-5
-7,9,-63,-6,-3,0,-6,-4
-29,-15,-119,-18,-11,-10,-17,-4
21,19,86,13,6,2,-2,-35
10,30,-39,-107,-3,7,-4,31
0,14,-41,68,7,1,-1,-4
-76,-26,65,-58,-20,-16,-23,-22
59,2,13,-6,-1,5,14,43
2,15,33,99,23,10,6,6
-24,-33,-36,-97,-33,-11,1,12
61,33,94,72,7,-4,-18,-42
1,36,14,4,-5,3,18,27
1,8,41,75,17,5,4,-13
8,-8,-20,21,0,5,7,24
-26,-78,-96,-9,-7,-10,-13,32
-4,-7,-106,-39,-12,-3,-10,-5
20,24,48,48,12,5,3,-1
18,21,-16,21,1,-1,0,-5
-7,1,-61,-56,-9,-1,-4,-10
-15,16,-33,-54,8,2,2,-15
42,34,43,10,4,1,1,35
6,-84,-55,-89,-37,-19,-31,-71
-3,7,110,43,13,9,34,15
-7,-4,52,99,-1,-6,-6,-3
-4,-5,21,-57,-15,0,-6,-6
-9,19,127,79,19,7,4,6
15,24,-40,-31,6,5,-1,-2
0,6,102,17,-11,-3,-8,-8
-14,-10,24,-19,10,-2,7,-14
-12,-6,33,6,1,-2,1,-1
7,0,-58,-19,5,6,2,2
13,59,85,71,13,0,-15,49
-15,-72,-39,2,-39,-16,8,-38
-3,37,44,-50,6,-1,6,9
10,12,2,24,7,-3,-2,1
3,-33,-21,-40,8,3,0,-1
-21,3,108,5,2,3,-9,-6
11,-26,9,12,-22,-17,-7,0
2,-19,-46,-6,-1,6,10,3
-5,-14,-10,-46,-3,-5,-1,-21
-13,5,-25,9,6,1,-6,6
3,17,10,35,16,10,6,7
-9,-5,21,-67,-14,-8,-14,-5
-3,-27,-55,0,-4,-2,0,-10
4,6,-58,-30,-12,-9,-7,-7
-4,-3,-4,33,10,4,-1,10
6,10,21,17,3,-2,-3,-10
-8,-12,-28,-7,-16,-1,-1,-10
0,-7,-15,-73,-24,-12,-2,-2
-3,-1,8,60,76,24,3,1
-4,4,13,17,-4,1,0,4
-3,-14,-17,-2,-2,3,-1,-11
-3,-3,-15,-13,-18,-6,-3,-2
0,11,10,12,-51,-16,-1,1
-3,-4,-7,-53,-7,-9,-4,-5
-3,-6,-22,36,67,13,-2,0
2,0,-20,-25,-18,-6,-3,-5
-2,9,18,65,-33,-6,-1,1
1,8,13,21,40,7,2,1
-5,-9,-5,-4,0,-3,0,-7
-2,-2,-10,22,27,8,4,3
-3,0,-1,-17,-4,-5,-3,1
1,1,4,-39,-33,-10,-5,-3
-2,-2,-8,-10,-15,-5,0,-2
-2,-3,-10,11,15,7,1,-3
-3,8,7,-14,0,-2,-3,1
1,4,6,14,-7,3,-3,-1
-1,1,-4,-14,3,-1,-2,-4
-2,-2,-4,5,-8,-2,-3,-1
-1,3,3,-32,-3,-2,0,-3
-1,-1,1,24,-2,0,-1,-1
0,-3,0,-10,-10,-7,0,-3
-1,-3,-4,3,-8,-2,-1,-3
-3,1,-2,-15,4,3,2,0
